0	-0.000342624564846603
0.002	-5.7850107727032e-05
0.004	-0.000103371740741659
0.006	0.000225229174365761
0.008	-1.53715122140485e-05
0.01	1.5668335480049e-05
0.012	2.81479446598872e-05
0.014	-2.47080433024517e-05
0.016	-0.00019808506000476
0.018	0.000214981836362037
0.02	5.03622724538425e-05
0.022	-4.88279360736642e-05
0.024	2.05663632829465e-05
0.026	0.000220430023609243
0.028	8.11681201379909e-05
0.03	8.8803194389087e-05
0.032	4.02892620296469e-05
0.034	-0.000104033421864556
0.036	-1.91846100597466e-05
0.038	-2.51364090405648e-05
0.04	8.28613271825841e-05
0.042	9.68164344062282e-05
0.044	6.16724081078693e-05
0.046	0.000151475538743745
0.048	3.92658540905908e-05
0.05	8.9409545515794e-05
0.052	-2.00504578545055e-05
0.054	-3.71962641199993e-05
0.056	8.47125809502537e-06
0.058	8.83739497696223e-05
0.06	-3.2112080671044e-06
0.062	-1.84461471712102e-05
0.064	-0.000133697044133094
0.066	-0.00014176479939707
0.068	-2.10317622161547e-05
0.07	-2.91069561312725e-05
0.072	-0.000202966613755391
0.074	-0.000210656426169648
0.076	6.14809455127893e-05
0.078	-4.18754344360192e-05
0.08	-4.53012611074162e-05
0.082	-4.80272355076698e-06
0.084	-7.09680897914652e-05
0.086	-3.24758468315783e-05
0.088	-1.11250168921602e-05
0.09	-0.000222745096681831
0.092	-5.82864450730449e-05
0.094	-6.89502021808887e-05
0.096	-2.30114432342989e-05
0.098	-3.84662127013486e-05
0.1	-0.000199549176856958
0.102	-6.69086819858897e-05
0.104	-0.000184606212151787
0.106	-0.000101871752995255
0.108	-6.96417113848357e-05
0.11	1.35688008440656e-05
0.112	-4.26749620761107e-05
0.114	-5.80816658941498e-05
0.116	-0.00022869055105973
0.118	-7.94762168216649e-05
0.12	3.61888799910932e-05
0.122	-0.000300719712688806
0.124	-3.77476743761118e-05
0.126	-0.000326137348173487
0.128	-8.63335827747292e-05
0.13	-2.78465877179261e-06
0.132	-0.000216473100671114
0.134	3.99917924638027e-05
0.136	-1.78691731992717e-05
0.138	4.51178705561703e-05
0.14	6.43241241333733e-06
0.142	-0.000106209043813323
0.144	-3.11402568956851e-05
0.146	-7.23139898226693e-05
0.148	-0.000256285872324436
0.15	-2.46185158577536e-05
0.152	-7.66934985212495e-05
0.154	-6.24901355481337e-05
0.156	-8.44892662165749e-05
0.158	-0.000103334153051329
0.16	-0.000375697509831805
0.162	5.44469769823438e-05
0.164	-0.000166390186824455
0.166	-0.000165976778057056
0.168	-3.03254359653193e-05
0.17	-0.000149964546648168
0.172	-0.000205379349092201
0.174	-3.99213754212552e-05
0.176	-0.000122651206890303
0.178	-0.000192120077301408
0.18	0.000116822870649322
0.182	-8.49726601644297e-06
0.184	4.17134325649278e-05
0.186	0.00010619406020871
0.188	-4.69118373559114e-05
0.19	-0.000288360480055105
0.192	-0.000514643861648253
0.194	-0.000614067057197529
0.196	-0.000330510858436279
0.198	-3.26598904805268e-05
0.2	0.000143895760517192
0.202	-2.64955630193709e-05
0.204	-0.000103282338730798
0.206	1.70102728872493e-05
0.208	-0.000167118463960319
0.21	5.78760373355304e-05
0.212	-0.000121638288384325
0.214	-9.84779956260243e-05
0.216	-0.000230545377971314
0.218	-0.000122443469481513
0.22	1.38312510689095e-05
0.222	0.000106447571865152
0.224	0.00010756797487169
0.226	-0.000165171740679942
0.228	-1.36939931998703e-05
0.23	4.33181559145199e-05
0.232	5.30976370902761e-05
0.234	8.76059708974112e-05
0.236	9.93725663029086e-05
0.238	3.68784404263511e-05
0.24	6.09035414664711e-05
0.242	3.32751204289204e-06
0.244	2.49775050466928e-05
0.246	0.00016724577260203
0.248	-6.07092992715295e-05
0.25	2.74873610688961e-05
0.252	-6.3187237609757e-05
0.254	0.000116482756359659
0.256	-7.94647917030554e-05
0.258	-0.000174098695800812
0.26	-0.00015764932501262
0.262	1.25493146974199e-05
0.264	0.000157128104763121
0.266	-0.000130236205215252
0.268	-1.03837584996913e-05
0.27	9.75949768913823e-05
0.272	1.46607357473138e-05
0.274	5.08635283349368e-05
0.276	-0.000163847601764462
0.278	2.75774040701002e-05
0.28	-0.000111254955378203
0.282	-0.000229922671243457
0.284	-0.00011247962445209
0.286	-3.33405311724316e-05
0.288	0.00012587239732782
0.29	5.95796403225811e-05
0.292	-2.31681916396632e-05
0.294	5.81580504042768e-05
0.296	-0.000108149957329324
0.298	-0.00018576916456298
0.3	-0.000105315516668885
0.302	-0.000167543503950591
0.304	4.75840883377463e-05
0.306	-6.34969570042069e-05
0.308	-0.000199229776650204
0.31	-7.09835807410446e-05
0.312	-0.000179002937305922
0.314	-0.000128929158420031
0.316	6.23456870843067e-05
0.318	5.89330035042384e-05
0.32	-0.000194445076916605
0.322	-0.000129978016657798
0.324	-6.2513473322762e-05
0.326	-4.79477587659157e-05
0.328	1.44628877105134e-06
0.33	0.000291018923401858
0.332	-5.66137664885354e-05
0.334	-6.53668792462285e-05
0.336	-0.000570415249039391
0.338	-0.000486223030159447
0.34	-0.000487004666270887
0.342	-0.000358467060817031
0.344	1.13356599197931e-05
0.346	-4.02045275731794e-05
0.348	-1.49900136864756e-05
0.35	1.04797378107448e-05
0.352	4.90298526614941e-05
0.354	0.000167960580673843
0.356	6.66211910224824e-05
0.358	6.37242964810564e-05
0.36	0.000121092630485377
0.362	8.56891823472006e-05
0.364	-0.000132653892038917
0.366	-3.00846770900582e-05
0.368	-0.000171675311478157
0.37	5.27081907109452e-05
0.372	0.000216130430371779
0.374	0.000156581377719242
0.376	6.7209158296061e-05
0.378	-7.93679971787634e-05
0.38	-8.44951960367469e-05
0.382	2.13042186829146e-05
0.384	4.49110992640322e-06
0.386	0.000113701846724337
0.388	0.000191359783860005
0.39	1.28878114658846e-05
0.392	2.11439748965225e-05
0.394	0.000168557223379243
0.396	0.00010551991318229
0.398	-0.000125377279830381
0.4	-7.14221720186049e-05
0.402	-7.04545941668695e-05
0.404	-0.000150945302287127
0.406	-3.70862239513739e-05
0.408	-9.73599608675866e-06
0.41	0.000111194938786903
0.412	3.96592584784056e-05
0.414	5.59544979552769e-05
0.416	-7.58084921930825e-05
0.418	-4.71353558615277e-05
0.42	7.91393030095364e-05
0.422	-0.000158422809860469
0.424	-1.57858159353111e-05
0.426	4.66651419371057e-05
0.428	-0.000178399188492569
0.43	-2.46613199111795e-05
0.432	-0.000180161714415016
0.434	-0.000130011941633787
0.436	-0.000155124112700412
0.438	-0.000138055511109599
0.44	-0.000117962999355004
0.442	-0.000172894680908056
0.444	-0.000109581777734925
0.446	9.63256862453824e-05
0.448	0.000353222716102893
0.45	3.46714890833518e-05
0.452	-0.000374212202405409
0.454	-0.000544448063316523
0.456	-0.000513995133218179
0.458	-0.000298819263066986
0.46	-0.000160592480531908
0.462	-0.000225433231026009
0.464	0.000118886333760468
0.466	8.04347038454443e-05
0.468	-8.05553504433549e-05
0.47	-4.60351898645328e-05
0.472	-6.32209273600419e-05
0.474	-5.08946999453181e-05
0.476	-7.90799045067468e-05
0.478	9.4994458607585e-05
0.48	-0.000144377537391132
0.482	-4.74581967519503e-05
0.484	0.000145403844861603
0.486	5.30935000871452e-05
0.488	-1.42341599477401e-05
0.49	-2.0950073138573e-05
0.492	6.88850342301028e-05
0.494	0.00010692402038799
0.496	0.000108484359397438
0.498	0.000235229873695946
0.5	-7.63437710332144e-05
0.502	2.5484295686712e-05
0.504	-0.0001510106984063
0.506	0.000112766677262916
0.508	0.000157021530373573
0.51	9.95574040564078e-05
0.512	-7.40221506397881e-05
0.514	-0.00011305521493472
0.516	0.000285671555354174
0.518	-5.45276403726465e-05
0.52	0.000152026952149058
0.522	-1.52471288081637e-05
0.524	-2.11573579229201e-05
0.526	-0.000107713875218079
0.528	4.56456153722651e-06
0.53	-7.09718834791453e-05
0.532	-0.000186586053579744
0.534	-0.000113139569995425
0.536	-9.28113495478914e-05
0.538	-0.000104797073406859
0.54	-3.95657493222928e-05
0.542	-2.32268403043483e-05
0.544	-0.000352591915188285
0.546	-0.000162656819080219
0.548	-8.20847648839226e-05
0.55	-2.08966372921328e-05
0.552	-4.17009076785057e-06
0.554	3.79486247916206e-05
0.556	-1.61720169856817e-05
0.558	0.00035039330529634
0.56	0.000188895139384482
0.562	-0.000389736396925482
0.564	-0.000504522278860533
0.566	-0.000490085374641169
0.568	-0.000343789915864586
0.57	-0.000151129166999402
0.572	4.15907106863785e-05
0.574	1.90451775519206e-05
0.576	0.000160284406799234
0.578	0.000132930591486103
0.58	1.82353085075157e-06
0.582	6.84049524254531e-05
0.584	0.00010247628946259
0.586	0.000143041553163189
0.588	-2.15747141436222e-05
0.59	0.000123051697354514
0.592	0.000111139053576463
0.594	9.88555720966351e-05
0.596	0.000132673423837368
0.598	1.84313720715842e-06
0.6	8.26551453608981e-05
0.602	0.000142107530553686
0.604	-6.97392414318171e-06
0.606	-8.38301033388703e-05
0.608	0.000133557473339798
0.61	9.63387909612845e-05
0.612	0.000148250868652885
0.614	0.000110477230028305
0.616	1.85719795242398e-05
0.618	0.000156854374740394
0.62	0.00019330823910654
0.622	0.00011617512928475
0.624	6.3628017107535e-05
0.626	6.59883712456591e-05
0.628	1.52900948959004e-05
0.63	-0.000130677938541202
0.632	9.36976107600334e-06
0.634	7.14791556344692e-05
0.636	-4.33252560177425e-05
0.638	-0.000128960932196704
0.64	-1.2847360239767e-06
0.642	5.03602660000209e-05
0.644	-2.81078235789505e-05
0.646	-2.92782248464852e-05
0.648	-5.23687037515597e-05
0.65	-0.000135207520623384
0.652	-6.16642067314588e-05
0.654	5.75975089858639e-05
0.656	-5.00410942702676e-05
0.658	2.92612888188165e-05
0.66	-4.53122187317184e-05
0.662	2.75949352234341e-05
0.664	-8.78680942750823e-05
0.666	-0.000152439336460832
0.668	-0.00029237333135201
0.67	3.71408127549933e-05
0.672	-1.33359021079458e-05
0.674	2.63297237216324e-05
0.676	4.80218736358788e-06
0.678	-0.000239546623221402
0.68	-4.90647667378439e-05
0.682	0.000141470760528353
0.684	3.18004664033677e-05
0.686	-8.07133871459445e-05
0.688	-0.000118931874382208
0.69	-0.000108225460953542
0.692	-4.85700085393019e-05
0.694	-4.05359251737728e-05
0.696	-0.000152885121402678
0.698	-0.000112297159546664
0.7	-9.44647866088476e-05
0.702	4.38506166646776e-05
0.704	3.56626188428831e-05
0.706	-3.87470513879067e-05
0.708	-0.000196201094320139
0.71	-2.96340486409631e-05
0.712	3.20881094778122e-05
0.714	-6.94969777518717e-05
0.716	-0.000174986675313329
0.718	-0.000139468302824962
0.72	1.63909591711639e-05
0.722	-8.25681015080641e-05
0.724	-4.0758913640737e-05
0.726	-4.82272817744828e-05
0.728	-1.27902453910658e-05
0.73	8.55076028506626e-06
0.732	-3.98967358137393e-05
0.734	-3.34838682381389e-05
0.736	-3.20229831135287e-05
0.738	-0.000126890277482847
0.74	0.00021873037342354
0.742	0.000330073137910031
0.744	-4.11876152949136e-05
0.746	-0.000558109918108222
0.748	-0.000691082624866
0.75	-0.000690746943045641
0.752	-0.0003012085371337
0.754	-2.78626837400505e-05
0.756	8.68987979577537e-05
0.758	-1.04592512355947e-05
0.76	-4.24005985741696e-05
0.762	0.000191985875373903
0.764	0.000196273443934841
0.766	0.000267051024337499
0.768	-8.45010214024004e-05
0.77	-0.000125760936624414
0.772	3.51215957447178e-05
0.774	5.3476763984439e-05
0.776	7.90653322847315e-05
0.778	-3.29600797030575e-05
0.78	-2.47616517238989e-06
0.782	-1.38682806546734e-05
0.784	-0.000181643723663056
0.786	-5.17181751588935e-05
0.788	6.16219230761535e-05
0.79	1.13784060600561e-05
0.792	0.000142193961115802
0.794	0.000126766478754499
0.796	0.000106532004830987
0.798	0.000145161731930982
0.8	0.000299592647956107
0.802	5.96320294672062e-05
0.804	0.000383739523422289
0.806	0.00029471080086977
0.808	0.000233006722897206
0.81	-9.29902389202387e-05
0.812	5.82679702658318e-05
0.814	-5.12071022452584e-05
0.816	8.60479162864043e-05
0.818	-6.58954125887872e-05
0.82	-2.75659770887213e-05
0.822	0.000135544865937101
0.824	-0.000166793827548991
0.826	-0.00024673641206433
0.828	-0.000142797866617326
0.83	-9.68879381188677e-05
0.832	-9.47484046400321e-06
0.834	-7.35300966851237e-05
0.836	-0.000127686025047844
0.838	-6.66228308273304e-05
0.84	-0.000204241913286211
0.842	-5.45106385135009e-05
0.844	2.72255364808876e-05
0.846	-9.31370478395428e-05
0.848	4.27197312907784e-05
0.85	-0.000115230624355896
0.852	2.0275558172323e-05
0.854	-0.000225857068367242
0.856	-7.59190125007281e-05
0.858	-2.13493153037522e-05
0.86	-0.000184457060432114
0.862	-0.0002134315998721
0.864	-0.000121322293523771
0.866	-9.19671928265331e-05
0.868	7.61361039819841e-05
0.87	-0.000169643491723644
0.872	3.84117871171201e-05
0.874	-0.000102403173048917
0.876	-0.000145044798470005
0.878	-0.000122345763284201
0.88	0.000131207861609854
0.882	-0.000149913018320495
0.884	7.16729996222089e-05
0.886	-7.69277009275415e-05
0.888	-0.000138115851323686
0.89	-1.75999727932977e-05
0.892	-6.29726001882215e-05
0.894	-9.4743459471057e-05
0.896	-3.04766696549845e-05
0.898	-0.000130143838039733
0.9	0.000139618214667655
0.902	-7.55260872810861e-05
0.904	3.29487651281648e-06
0.906	2.51678755961215e-05
0.908	-0.00017253023968909
0.91	7.77661567834081e-05
0.912	3.74481607214512e-05
0.914	-0.000132298853271224
0.916	-2.70063403016369e-05
0.918	-0.000154941433359816
0.92	7.33824796522497e-05
0.922	-6.25856898055647e-05
0.924	2.44186086210495e-05
0.926	-7.44618331885485e-05
0.928	-5.7944101426883e-05
0.93	-0.000142445291197479
0.932	-0.000143997689882245
0.934	-0.000115791293317501
0.936	0.000150917221503345
0.938	-5.66518417486812e-06
0.94	-3.77890432952024e-05
0.942	-3.90430057530727e-05
0.944	0.000153278018884666
0.946	-4.86546644924098e-05
0.948	-2.28798496642361e-05
0.95	-0.000160054531942601
0.952	-0.000103377862744851
0.954	-0.000204224012927635
0.956	-3.42416082084036e-05
0.958	-0.000160670378349024
0.96	6.13589819941915e-05
0.962	3.16108945616836e-05
0.964	-6.15121874150163e-05
0.966	-8.66478909172891e-05
0.968	-0.000192404485823821
0.97	4.94854564491703e-05
0.972	4.50629372556563e-05
0.974	-5.97731769540627e-05
0.976	0.00016427354566435
0.978	1.99594882483405e-06
0.98	2.80745564759333e-06
0.982	-5.22126200317108e-05
0.984	9.74195487665374e-06
0.986	-7.46776082013307e-05
0.988	6.02040727715917e-05
0.99	0.000164350136347124
0.992	3.57604906908333e-05
0.994	-0.000495479251238343
0.996	-0.000320971471012631
0.998	-0.000687338631781105
1	-0.000142503165484479
1.002	-0.000131182592119742
1.004	-0.000290219461573176
1.006	-2.76058527811204e-05
1.008	7.90472086467111e-05
1.01	-7.94171799024077e-05
1.012	8.01812443539962e-05
1.014	-9.49569832021923e-05
1.016	2.32203713663894e-05
1.018	0.00018192749131468
1.02	5.19373112882863e-05
1.022	0.000152306911896317
1.024	3.02250953909839e-05
1.026	-5.77710280373958e-05
1.028	7.68351917110174e-05
1.03	2.37916305164477e-05
1.032	0.000245012874931287
1.034	-5.66571533600853e-05
1.036	3.89076012057134e-05
1.038	-0.000128662462137704
1.04	0.000192671259274839
1.042	9.73175736508914e-05
1.044	0.000170835140995695
1.046	7.46646388796633e-06
1.048	8.58723072458241e-05
1.05	0.000179601176733875
1.052	1.36995111181836e-05
1.054	9.30291217333444e-05
1.056	-0.000112428428297503
1.058	8.51669261231436e-06
1.06	3.17776845146826e-05
1.062	-3.38137579684764e-05
1.064	-0.000135454289761486
1.066	5.33262762707833e-05
1.068	2.75901105948961e-05
1.07	6.73564623717355e-05
1.072	9.8158315618497e-05
1.074	-0.00010398536459004
1.076	-1.6927899760661e-05
1.078	-3.95313163082637e-05
1.08	6.4766542928907e-05
1.082	4.15865852329042e-05
1.084	-0.000141366609256348
1.086	-0.000253850721204417
1.088	-0.000149481448467084
1.09	2.74577759271301e-05
1.092	-8.13946006153922e-05
1.094	-0.000107022009960165
1.096	-0.000168716849107785
1.098	-7.28265036983257e-05
1.1	-0.000100059748317675
1.102	-0.000490716122248374
1.104	-0.000709368058898449
1.106	-0.000790138418054608
1.108	-0.000666441405901343
1.11	-0.000692389403052571
1.112	-0.000592088695844203
1.114	-0.000624675922757501
1.116	-0.000403069448903068
1.118	-0.000293634222704326
1.12	-0.000217938944688199
1.122	3.9558849417015e-05
1.124	7.23033837451582e-05
1.126	0.000331503155120744
1.128	0.000228014762975613
1.13	0.000248935317002562
1.132	0.000181913785074663
1.134	7.62134979766152e-05
1.136	6.64449000048888e-05
1.138	0.000235467773150428
1.14	0.00035982936305824
1.142	0.000249973301198144
1.144	0.000315039680446385
1.146	0.00017008109782489
1.148	0.000269299156249497
1.15	0.000219636629551897
1.152	0.000180272413414049
1.154	0.000360904786806889
1.156	0.000269911072769461
1.158	-1.47663955499266e-05
1.16	0.000536792800224221
1.162	0.000335639731377521
1.164	0.000432572525331337
1.166	0.0003558609105553
1.168	0.000424611610225071
1.17	0.000365548941359772
1.172	0.000360328093445015
1.174	0.000290266500194197
1.176	0.000184279467473717
1.178	0.000209755740387735
1.18	0.000241273443365445
1.182	0.000143590532026327
1.184	0.000267646091881666
1.186	0.000366246609617242
1.188	-7.60277991558873e-05
1.19	-0.00011416270431126
1.192	-0.00014335824679568
1.194	-0.000145710351928311
1.196	-6.6281078048535e-05
1.198	-2.38839170288153e-05
1.2	-4.89087316548829e-05
1.202	-0.000206179511108036
1.204	8.85031659453241e-05
1.206	2.95075418923041e-05
1.208	-0.000178020537695274
1.21	-0.000100100650686031
1.212	-0.000115560121424349
1.214	-7.6586270985825e-05
1.216	-0.00013159475221522
1.218	-9.26241464182324e-05
1.22	5.26844043690768e-05
1.222	0.000127172070353601
1.224	0.000361292891288666
1.226	-0.00012760015178627
1.228	-0.000532641888814609
1.23	-0.000536913418181914
1.232	-0.000497194545471693
1.234	-9.2530006718857e-05
1.236	-2.06738371451137e-06
1.238	-0.000284054579711959
1.24	-7.67464261488908e-05
1.242	5.91877266182695e-05
1.244	8.43440077696983e-05
1.246	-0.000171809745450517
1.248	0.000149951074136838
1.25	-4.31483622295945e-05
1.252	-0.000184933948033926
1.254	-7.282011989984e-05
1.256	-9.61576954666333e-05
1.258	0.00013477156350476
1.26	-0.000246150089071646
1.262	-0.000102171328582269
1.264	3.24429185268666e-05
1.266	7.98905106508067e-05
1.268	-0.000156032230034385
1.27	0.000165729156282718
1.272	-0.000102353017027418
1.274	-3.19558178278589e-05
1.276	4.45725126208044e-05
1.278	0.00018911758993265
1.28	0.000174333368496397
1.282	0.000138374786952564
1.284	0.000234318524168655
1.286	6.56933754510755e-05
1.288	0.000275401174642815
1.29	0.000110998940505731
1.292	-0.000116160297043719
1.294	-5.50411104550385e-05
1.296	-9.47386217771743e-05
1.298	-0.000135746882412941
1.3	2.45298166002408e-05
1.302	-0.00018547390703408
1.304	-7.02437774999755e-05
1.306	-7.76657872790689e-05
1.308	-0.000161109556901463
1.31	-6.41069569000585e-05
1.312	-0.000143324297054932
1.314	0.000122029074000858
1.316	-0.000232519676783572
1.318	-3.74414414315889e-05
1.32	-0.000117008687755182
1.322	-8.16152545177865e-05
1.324	-0.000229435026844639
1.326	4.33453398390626e-05
1.328	-9.26970473674859e-07
1.33	0.000106176907039974
1.332	5.68136081759836e-05
1.334	-9.57624797302558e-05
1.336	-8.2898411184378e-05
1.338	2.22803730377607e-05
1.34	0.000316736252028672
1.342	8.01129723652074e-05
1.344	-0.00032977678379404
1.346	-0.000875004246057387
1.348	-0.000734420854021541
1.35	-0.000374684639060257
1.352	-9.97203678245289e-05
1.354	8.48837081665187e-05
1.356	1.50736137185118e-05
1.358	3.77156662289885e-06
1.36	-0.000140788230425143
1.362	-0.000244878476022214
1.364	6.96527904972225e-05
1.366	2.21620259828e-05
1.368	1.77399848442682e-05
1.37	3.4250306515853e-05
1.372	-6.89733472704396e-05
1.374	9.33864872182185e-05
1.376	8.68540951770159e-05
1.378	-3.26246192354489e-05
1.38	-5.62765983060014e-05
1.382	1.81418365990836e-05
1.384	0.000108630964949947
1.386	0.00018464782841096
1.388	0.000183563435454121
1.39	-0.000100693460579647
1.392	0.000142485005373362
1.394	-0.00023343973092365
1.396	-8.04995610605224e-05
1.398	8.18567561560298e-06
1.4	8.5225079800017e-05
1.402	7.46253614341066e-05
1.404	7.30717557605444e-05
1.406	0.000188525825569396
1.408	7.72185183121839e-05
1.41	0.000135938632315998
1.412	1.02847653107361e-05
1.414	-0.00010293436830744
1.416	-0.000162430155861783
1.418	7.53993234818389e-05
1.42	-9.78922577282172e-05
1.422	-9.47300799847577e-06
1.424	-6.56989377669922e-05
1.426	-0.000119510938730587
1.428	-1.71118898588376e-05
1.43	-0.000152661061879201
1.432	3.07206125706566e-05
1.434	8.35827250209179e-05
1.436	0.000155569896823097
1.438	3.65061572947181e-05
1.44	6.3511316710233e-05
1.442	3.77916131663071e-05
1.444	-0.000164706467552355
1.446	-8.22214274228606e-05
1.448	-3.18195507712356e-05
1.45	-0.000199534818599121
1.452	-9.86741246368856e-05
1.454	-0.000227981836720592
1.456	-0.00011831810319298
1.458	-6.73071860490334e-05
1.46	-5.60620243755427e-05
1.462	-2.5129385328861e-05
1.464	5.95570579505573e-07
1.466	-0.000118654351781327
1.468	3.76825214607161e-06
1.47	1.1439556359022e-05
1.472	-0.000117757412740599
1.474	-3.78918740025586e-05
1.476	0.000102413692826698
1.478	0.000182989574083623
1.48	3.10274460795859e-05
1.482	-0.000404004723175798
1.484	-0.000636529153253395
1.486	-0.000682370716315648
1.488	-0.000264465347770933
1.49	-0.000370363349749089
1.492	-3.81969874590706e-05
1.494	1.60863552915812e-05
1.496	1.36589365131666e-05
1.498	-3.52135971805692e-05
1.5	-0.000171862920427569
1.502	-7.48234225407141e-05
1.504	-0.000125133688526381
1.506	5.85251328137927e-05
1.508	-5.91205136482074e-05
1.51	3.6480483269891e-05
1.512	-1.96055907138645e-05
1.514	-6.59626659458391e-05
1.516	-7.39056346321447e-05
1.518	-0.000136453412005918
1.52	-7.0137161600412e-05
1.522	-4.01800520935372e-05
1.524	1.71424037022317e-05
1.526	8.73116626318798e-05
1.528	7.85557821395693e-05
1.53	0.00015418200630855
1.532	8.04402026214855e-05
1.534	0.000202695000238743
1.536	8.77016272941089e-05
1.538	8.6855255413577e-05
1.54	0.000207049402328643
1.542	0.000166177296049974
1.544	0.00012103082998466
1.546	4.41092286631575e-05
1.548	4.90999496581362e-05
1.55	-6.80386310589505e-05
1.552	-3.30524081432094e-05
1.554	-1.8738072501903e-05
1.556	0.000116505694130806
1.558	-0.000131805514608455
1.56	-0.000140131121040329
1.562	-7.27398068255926e-05
1.564	-8.62022210784963e-05
1.566	-0.0001056270126495
1.568	-9.54411689183927e-05
1.57	-0.000314654912222823
1.572	3.52707261440555e-05
1.574	-3.19343316802109e-05
1.576	-0.000145051325277843
1.578	-0.000164334496436119
1.58	-0.000162828889884192
1.582	-0.000265731464703762
1.584	-0.000111646343035521
1.586	4.87249598852262e-05
1.588	-0.000222484867156271
1.59	-0.000246580892670114
1.592	-6.23263802557123e-05
1.594	-0.000200077603482137
1.596	-9.490064296799e-05
1.598	-8.59598764039228e-05
1.6	0.00014114590428231
1.602	0.000233428028344408
1.604	-3.15374795926369e-05
1.606	-0.000525834223912342
1.608	-0.0006471086878448
1.61	-0.000534868251554658
1.612	-0.000366026462529685
1.614	-0.000379150563383741
1.616	-1.7976169887386e-05
1.618	-0.000135678640313862
1.62	7.12168001788872e-07
1.622	-0.000192599863685564
1.624	4.67139683195993e-05
1.626	-0.000148380386855711
1.628	-0.000112441929339025
1.63	-7.99280510755711e-06
1.632	0.000204979916246685
1.634	-0.000126952458425964
1.636	0.000173165319181562
1.638	5.36230281379572e-05
1.64	-8.50934175672395e-05
1.642	9.77096108119866e-05
1.644	4.64842685599911e-05
1.646	-2.54819782814295e-05
1.648	-2.72679680159885e-05
1.65	-0.000195209590091459
1.652	6.67976640683716e-06
1.654	7.86239080325309e-05
1.656	5.09272699738831e-05
1.658	-1.11250297157359e-05
1.66	0.000129010199386525
1.662	-2.82351069778043e-05
1.664	7.70734367705628e-05
1.666	-0.000117846545145379
1.668	-2.26834998289032e-05
1.67	1.17522012701984e-06
1.672	2.56152199189861e-05
1.674	-6.61979922789978e-05
1.676	-5.01294542786569e-05
1.678	2.40421115997531e-05
1.68	1.76011475272381e-05
1.682	-0.000180824348826899
1.684	-9.78319973361509e-05
1.686	3.87362318647373e-05
1.688	-9.96667546477346e-05
1.69	-0.000103357984635783
1.692	5.1376307442467e-05
1.694	6.97406094564223e-06
1.696	-0.000143782120655208
1.698	-6.98280070908958e-05
1.7	-0.000181963506187597
1.702	-0.00010129774403771
1.704	1.80676435711903e-05
1.706	-0.000214632508065695
1.708	2.04545550181738e-05
1.71	-0.000131005115453988
1.712	-0.000163586209696355
1.714	-0.00017263642921763
1.716	-0.000328200966041682
1.718	-0.000121642243691672
1.72	-0.000226487349479239
1.722	-0.000281326216195738
1.724	-0.000122759334990318
1.726	-0.000115737825704202
1.728	-3.89367941833139e-05
1.73	0.000171574271220493
1.732	0.000123736089796697
1.734	-0.000366729723487517
1.736	-0.000547250008971219
1.738	-0.000558958053680966
1.74	-0.000476620477720878
1.742	-0.000412025012309158
1.744	-0.00029987557107888
1.746	-0.000182090008767798
1.748	1.59029598675839e-05
1.75	-4.36483766998645e-05
1.752	4.94020879039654e-05
1.754	8.3746140050464e-05
1.756	-0.000113262565226132
1.758	-0.000133338033376787
1.76	-0.000216977783242543
1.762	-5.0572124842943e-05
1.764	3.81075535458065e-05
1.766	0.000122053484143055
1.768	-3.10986615075849e-05
1.77	-8.21653201299423e-05
1.772	-5.69135140767345e-06
1.774	-0.000119305305936193
1.776	-1.91843737283699e-05
1.778	-3.7020433690392e-05
1.78	-0.000147048327535838
1.782	-4.80042653227784e-05
1.784	4.03176256440974e-05
1.786	0.000150815033033801
1.788	5.98490713892567e-05
1.79	0.000199487583990631
1.792	-6.43578226809791e-05
1.794	3.74615226957296e-05
1.796	-4.35599704417956e-06
1.798	1.27458540675995e-05
1.8	-0.000130178641721048
1.802	-3.41658880401259e-05
1.804	-6.66192591017737e-05
1.806	-8.30466075940472e-05
1.808	-9.2512671908911e-05
1.81	-8.66889775731946e-05
1.812	-7.97067629103999e-05
1.814	3.85849484895431e-05
1.816	-0.00013566839793362
1.818	-0.000101988482199667
1.82	-0.000272771749149829
1.822	-8.72772929450796e-05
1.824	-0.000103435910192199
1.826	-0.000179147417063088
1.828	-7.85253916130279e-05
1.83	-0.000136458489605654
1.832	-0.000140078529855926
1.834	-0.000224117395706433
1.836	-1.01643927476159e-05
1.838	-0.000197382322450818
1.84	-9.02185174838963e-05
1.842	-8.38593286330583e-05
1.844	-2.14894141876254e-05
1.846	-1.41403117927707e-05
1.848	-0.000232023344328774
1.85	5.36318911055016e-05
1.852	-1.57695531236244e-05
1.854	-0.0001742110688737
1.856	-0.000178386420084633
1.858	-0.000118025572210113
1.86	-0.00013117011086853
1.862	1.46169535475413e-05
1.864	-6.61327215963476e-07
1.866	-8.46530412393662e-05
1.868	5.34333063798747e-06
1.87	-9.52096263657384e-05
1.872	3.65796495291622e-05
1.874	2.53451436394494e-05
1.876	-0.000233427266829532
1.878	-1.96322466281299e-05
1.88	-6.83539484451405e-05
1.882	-0.000129497950513674
1.884	-1.91539833395171e-05
1.886	-0.000153459545061845
1.888	-0.000165502515513024
1.89	-4.77032510123508e-05
1.892	-0.000117656942676865
1.894	-9.66909286667651e-05
1.896	7.51840052728213e-06
1.898	-0.000152987263025115
1.9	-7.62873789257866e-05
1.902	-1.63665095194358e-05
1.904	-0.000196652581440106
1.906	8.10328901023371e-06
1.908	7.33827900647611e-05
1.91	0.000341468934597116
1.912	9.22843979679772e-05
1.914	-0.000400102603083319
1.916	-0.000571812610372892
1.918	-0.000359087388922713
1.92	-0.000201006598177241
1.922	-0.000149045614205689
1.924	1.77136851362278e-05
1.926	-1.31878929555933e-05
1.928	-6.44416523870663e-05
1.93	-9.81945762200808e-06
1.932	-0.000190144183683096
1.934	0.000138808511543233
1.936	6.81964424606046e-05
1.938	-0.000224483037819211
1.94	-0.000165185168961645
1.942	3.64515092586015e-05
1.944	-3.49542576744612e-05
1.946	-1.61713539703836e-05
1.948	-0.000174479572936464
1.95	5.25352959465884e-06
1.952	1.61820020907532e-05
1.954	6.86739726617473e-05
1.956	-0.000140206614733927
1.958	0.000129552003379821
1.96	-8.70356935303245e-05
1.962	4.01095069541342e-05
1.964	0.000206853785320578
1.966	0.000198134182956846
1.968	0.000115811914291331
1.97	0.000196304641069764
1.972	-1.84715030252287e-05
1.974	0.00019236634519949
1.976	0.000201685010666506
1.978	-1.6038200303415e-05
1.98	9.5088388663408e-05
1.982	0.000346783285735229
1.984	0.000123466601432723
1.986	0.000126909861712183
1.988	4.49481433059407e-05
1.99	-0.00015946673879623
1.992	-0.000252169451449409
1.994	-6.81623106629792e-05
1.996	-0.000165494792166001
1.998	-0.00021530262146148
2	-7.42418789364697e-05
2.002	-2.00764695278383e-05
2.004	0.000164165397787331
2.006	-0.000123236969870415
2.008	-6.08093703218359e-05
2.01	0.000206313990748135
2.012	-0.000172922556843433
2.014	1.85289360474659e-05
2.016	6.84962793078674e-05
2.018	0.000467372251336038
2.02	3.81821266396533e-06
2.022	-0.000437314620129005
2.024	-0.000615177578821131
2.026	-0.000402309196113376
2.028	-0.000369044401403801
2.03	-0.000115320472272297
2.032	-0.000135058792394686
2.034	-0.000154653653194445
2.036	0.000102623468379865
2.038	0.00012160317240382
2.04	9.15096252826311e-06
2.042	-7.96273309347038e-05
2.044	0.000132061415687456
2.046	0.000208033050135426
2.048	8.61832773200685e-05
2.05	-7.25277080010545e-05
2.052	-2.85379593794072e-05
2.054	8.6162186735988e-05
2.056	1.94781207702474e-05
2.058	0.00011978886017771
2.06	-8.39467733206202e-05
2.062	0.000178019889725697
2.064	-6.54172762172888e-06
2.066	-4.01884212603647e-05
2.068	-8.84245011591626e-05
2.07	0.000133244238685056
2.072	9.2407077661084e-06
2.074	2.609299550634e-05
2.076	2.57697922233e-05
2.078	-4.31463774998937e-05
2.08	1.7271805247789e-06
2.082	6.30251455998887e-05
2.084	0.000290715823267783
2.086	1.02337728868862e-05
2.088	0.000106498430420565
2.09	-8.49988910730843e-05
2.092	8.82328140202729e-05
2.094	8.02102275495652e-05
2.096	6.14344748080646e-05
2.098	2.04533716980378e-05
2.1	-0.000202887719085007
2.102	-3.8138590501064e-05
2.104	3.39557435830072e-05
2.106	-0.000222039242672469
2.108	-8.77958272673477e-05
2.11	8.03713513285504e-05
2.112	-3.02985976279277e-05
2.114	0.000107291521690062
2.116	-7.42105988576864e-05
2.118	7.94482997252963e-05
2.12	-3.27914479696558e-05
2.122	1.59439781670422e-05
2.124	-0.000204607618267107
2.126	-0.000218943123646012
2.128	-2.46195965646964e-05
2.13	-0.000112742915540243
2.132	-0.000270507901127854
2.134	-0.000127760951619976
2.136	-0.000112414255854495
2.138	-0.000159148466489537
2.14	-0.000199935392309193
2.142	-3.15467849758446e-05
2.144	-4.0955944876715e-06
2.146	-0.000117297614162806
2.148	0.000161122490754108
2.15	1.95159306222595e-05
2.152	4.60895496908429e-06
2.154	0.000254665810082408
2.156	-7.92097659823281e-05
2.158	-0.00071497810543326
2.16	-0.000358656697743763
2.162	-0.000464582505867591
2.164	-0.00031188240801134
2.166	-1.99012177607445e-05
2.168	-4.3121900186258e-05
2.17	0.000117011175853629
2.172	0.000145950060793676
2.174	4.81038776537963e-05
2.176	-3.17410040523306e-06
2.178	-0.000179805418919043
2.18	-7.6859795867072e-05
2.182	4.87021169208764e-06
2.184	-0.000210484031228467
2.186	-0.00010184276936954
2.188	2.85578647995519e-05
2.19	-0.000104752693726888
2.192	-5.68267643888379e-05
2.194	6.51525209839254e-05
2.196	6.91233821497662e-05
2.198	7.73569968047171e-05
2.2	0.000334563084173161
2.202	0.000165996677736376
2.204	4.63441459850622e-05
2.206	0.000122087192868078
2.208	0.000237768643712429
2.21	0.000305207679996039
2.212	0.000198666035265783
2.214	4.12977586510569e-05
2.216	0.000198762643616796
2.218	0.00017616463423666
2.22	0.000150878231939104
2.222	6.46387172949681e-05
2.224	7.42073451761506e-07
2.226	7.4851796334452e-06
2.228	-0.000106514932235044
2.23	2.0160557711292e-06
2.232	-8.58996868453585e-05
2.234	5.79115150279777e-05
2.236	-8.25620425852095e-06
2.238	-7.26849969427163e-05
2.24	4.74919916216509e-05
2.242	-6.96099832587902e-07
2.244	-5.04516511532857e-05
2.246	-0.000175359947214581
2.248	5.8008379517551e-05
2.25	-7.81639704125635e-05
2.252	-8.07929215737563e-05
2.254	-3.06752411131873e-05
2.256	8.25326710288671e-05
2.258	-1.10718695182358e-05
2.26	-0.000141651966712883
2.262	-7.34324609648317e-05
2.264	-0.000143693156517642
2.266	-8.80963348566377e-05
2.268	-0.000190000279779128
2.27	-3.32106728076865e-05
2.272	-0.00011129506272689
2.274	-0.000167376276107212
2.276	-0.00014629856074675
2.278	3.59376790412259e-05
2.28	-0.000225762195168533
2.282	-4.56662363437546e-05
2.284	-7.86552319051251e-05
2.286	-0.000220409304502089
2.288	-0.000102466366284201
2.29	-0.000166490593198595
2.292	8.43592282324034e-05
2.294	0.000210802322334793
2.296	0.000177688382198891
2.298	-0.000422816673788378
2.3	-0.000670487742317077
2.302	-0.000694234498165405
2.304	-0.000455628614404752
2.306	-0.000112228372088455
2.308	1.91093918952508e-05
2.31	-4.37056878732001e-05
2.312	-0.000193294206305085
2.314	-7.91585503757524e-05
2.316	2.36852352081714e-05
2.318	-0.000133800952073832
2.32	-2.39449126961301e-05
2.322	0.000129795205525337
2.324	0.000150898187284728
2.326	-1.03183748503835e-05
2.328	0.000155510952439022
2.33	3.58737448501803e-05
2.332	6.07494628362443e-05
2.334	5.00987297836097e-05
2.336	-5.38941707117356e-05
2.338	2.29934223153941e-05
2.34	7.20688501214799e-05
2.342	0.000157146650627733
2.344	-0.000223294020892459
2.346	-3.42262959750446e-05
2.348	0.000209281564009082
2.35	0.000143247507927306
2.352	0.00011368926693032
2.354	0.000171405384983706
2.356	0.000255745325259629
2.358	3.95032354324533e-05
2.36	0.00017020352350009
2.362	-6.82408148834384e-05
2.364	0.000104771364111417
2.366	4.90174291419396e-05
2.368	0.000128480665885889
2.37	-0.00011024901528554
2.372	-3.07644887420824e-06
2.374	1.36084314655182e-05
2.376	-0.000148946527391456
2.378	-6.38117326340635e-05
2.38	-9.11587683428164e-05
2.382	-0.000119517019914665
2.384	-0.000158470748119183
2.386	-0.000175537306212246
2.388	-0.000233345311366545
2.39	-0.000154835479442853
2.392	-0.000192987553529844
2.394	-0.000101033478458182
2.396	7.6989026279045e-05
2.398	-0.000111448757396893
2.4	2.56589007375539e-05
2.402	-1.94573942123347e-05
2.404	9.10815706191359e-05
2.406	-3.96867407813642e-05
2.408	-4.41542136597275e-05
2.41	-4.95501913832321e-05
2.412	-0.000176074844177736
2.414	0.000156831314343895
2.416	-0.000213477061720367
2.418	-7.79204565654677e-05
2.42	-9.79453422358568e-05
2.422	-1.4128644869139e-07
2.424	-8.3868697811784e-05
2.426	0.000354086292871368
2.428	8.51109068663095e-06
2.43	-0.000562197777723119
2.432	-0.000536114045608272
2.434	-0.000535809564406547
2.436	-0.00018790756889535
2.438	-1.67002780072215e-05
2.44	-0.000121945263131019
2.442	-7.60336598635359e-05
2.444	8.55365254306101e-05
2.446	-8.76106116788524e-05
2.448	-4.16319294397119e-05
2.45	-7.01157622326406e-05
2.452	3.04127823326701e-05
2.454	0.000104061607924715
2.456	-5.55465056151479e-05
2.458	-6.0013246073213e-05
2.46	9.1418189041192e-05
2.462	0.00018052045496303
2.464	0.000106885694250515
2.466	-0.000135022100093769
2.468	5.88744164816669e-06
2.47	4.57245452580784e-05
2.472	5.17920434945139e-05
2.474	1.51948886502892e-05
2.476	-0.000154054906066758
2.478	0.000174979507340663
2.48	0.000175461445348637
2.482	0.000145469442617281
2.484	4.65250456749509e-05
2.486	-4.57236373315429e-05
2.488	0.000141334609657674
2.49	-8.97507194990356e-06
2.492	5.0483374181773e-05
2.494	0.000179426885762863
2.496	0.000123440802642098
2.498	-3.6840346483513e-05
2.5	9.49116269451902e-06
2.502	-0.000102766392244193
2.504	-0.000120596801606893
2.506	-6.48238394073243e-05
2.508	-0.000172900771303441
2.51	0.000147035967014565
2.512	-1.26026230740204e-05
2.514	-0.000144333382929712
2.516	-7.09505742339417e-05
2.518	1.92955718461478e-05
2.52	-0.000103906258597118
2.522	-0.000109741060360993
2.524	-1.01130335883674e-05
2.526	5.73783911026623e-05
2.528	-5.85117525770084e-06
2.53	-8.73063692867939e-05
2.532	-4.62400938360812e-05
2.534	-9.90177466105217e-05
2.536	-0.000158473635879914
2.538	-0.000169935946025566
2.54	-0.000131102520000374
2.542	-2.30986045740286e-05
2.544	0.000269019581880547
2.546	-0.000271883632000825
2.548	-0.000593311055817394
2.55	-0.000794636980546023
2.552	-0.000561097026054925
2.554	-0.000405241094107389
2.556	-8.10605578131629e-05
2.558	8.82364905983676e-05
2.56	-0.000177373957536738
2.562	-9.08889016959534e-05
2.564	-8.57245970085702e-05
2.566	-5.57313593488083e-05
2.568	-4.35719831695651e-05
2.57	-0.000120058797005495
2.572	-4.48678287005892e-05
2.574	9.03289602380225e-05
2.576	1.98073816485406e-06
2.578	-6.49236283241316e-05
2.58	2.39725355884588e-05
2.582	5.3983474195057e-05
2.584	-0.000182229581156946
2.586	-1.03876413612251e-05
2.588	0.000235295544942368
2.59	3.97782638710389e-05
2.592	6.23981664859828e-05
2.594	0.000208202835235754
2.596	-6.03322244783627e-05
2.598	0.00015897050343073
2.6	3.30497507686945e-05
2.602	0.000101226792397934
2.604	0.0001537271792973
2.606	7.46222938268112e-05
2.608	3.00652323017106e-05
2.61	0.00015262004340807
2.612	4.70171137837679e-05
2.614	4.51190709755662e-05
2.616	8.02582839806471e-05
2.618	9.11650364971163e-05
2.62	-3.88283575027963e-05
2.622	-0.000124659673301261
2.624	1.05211642449194e-05
2.626	7.65256651628392e-05
2.628	-0.00013472331769836
2.63	-1.3062684612378e-05
2.632	6.65094953190076e-05
2.634	-8.82022003777128e-05
2.636	-5.66399591647338e-05
2.638	-0.000102503043732194
2.64	-0.000192437493042698
2.642	-0.000179550698610287
2.644	-0.000224270817323453
2.646	-0.000113721662736528
2.648	8.61268601393669e-05
2.65	-7.71193782587015e-05
2.652	7.31431067744073e-05
2.654	-0.000194857350176236
2.656	-0.000153396704495052
2.658	8.41952424741364e-05
2.66	-0.000237609897673236
2.662	-0.000231868620839421
2.664	0.000116686651010414
2.666	1.13982898124338e-05
2.668	-6.13584964855007e-05
2.67	-7.40038988803863e-05
2.672	4.58347161840428e-05
2.674	1.30114139022273e-05
2.676	2.36224671629503e-05
2.678	9.47945278587962e-05
2.68	7.91543584582997e-05
2.682	-3.48926599455864e-05
2.684	-0.000200197445186445
2.686	7.23368431229295e-05
2.688	-0.000174416417330288
2.69	-0.000324404544070858
2.692	-3.06675791585781e-05
2.694	-5.47234566604314e-05
2.696	-0.000136643515924868
2.698	-7.03089477066982e-05
2.7	5.82853794525915e-05
2.702	-5.51510378864069e-05
2.704	-0.000110537806304758
2.706	-7.49362432351697e-05
2.708	-0.000253217780113032
2.71	-0.000240728117619128
2.712	-0.000197058951600807
2.714	-0.000189268356478451
2.716	0.00016463228137997
2.718	-5.62466640448448e-06
2.72	5.33923825462964e-05
2.722	-6.68931103041627e-06
2.724	6.17087695546256e-05
2.726	0.000361213882354383
2.728	-1.20218923037143e-05
2.73	-0.000546093800089167
2.732	-0.00081331156525997
2.734	-0.00033151264227206
2.736	-0.000125321057106127
2.738	-0.000249199174015164
2.74	0.000101209139184087
2.742	-4.88679493356421e-05
2.744	-8.78412156707617e-05
2.746	-0.000136631393111528
2.748	-9.17992270885187e-05
2.75	-3.73163601319924e-05
2.752	-0.000198687848147322
2.754	-3.22783216341497e-05
2.756	-0.000188443811186373
2.758	-4.6461869072757e-05
2.76	-0.000133387431615725
2.762	0.000107167371875258
2.764	-8.08914224561479e-05
2.766	-5.23168009093332e-06
2.768	7.30843107494674e-05
2.77	2.26082278991278e-05
2.772	-2.39481547774832e-07
2.774	-0.000118691675601383
2.776	4.48307474882109e-05
2.778	0.000209733169810481
2.78	0.000134601837483496
2.782	-3.4787274468574e-05
2.784	0.000180054167656343
2.786	6.10412900470946e-05
2.788	0.000162793341407978
2.79	9.64135821549555e-05
2.792	-0.000160729709728513
2.794	-4.59164335379973e-05
2.796	0.000220749085139745
2.798	1.4032188639162e-05
2.8	-6.1044156204643e-05
2.802	-5.46457306561914e-06
2.804	-6.83504351404476e-08
2.806	-0.000145853857251395
2.808	-5.39950470564656e-05
2.81	-0.000217686316810555
2.812	-0.000156920318623914
2.814	-0.000150910793027281
2.816	-6.62097032987959e-05
2.818	0.000113563135496877
2.82	-8.16943411884613e-06
2.822	-0.000154633345060869
2.824	-0.000229238751804962
2.826	-0.000125747794946894
2.828	0.000121610518609415
2.83	-3.59412727458557e-07
2.832	-0.000152139360195106
2.834	0.000141249115559287
2.836	0.000117487608580697
2.838	0.000139242393013756
2.84	-0.000522956850765717
2.842	-0.000648956833303591
2.844	-0.000666915851248279
2.846	-0.000480361978818021
2.848	-0.00026191353860035
2.85	0.000146619543923596
2.852	-0.000252897111167266
2.854	4.66184991604132e-05
2.856	-0.000118418652683656
2.858	-7.68270234953422e-06
2.86	5.29964814669714e-05
2.862	-0.000207215361337546
2.864	3.28301252973042e-05
2.866	-4.47061266778024e-05
2.868	-0.000115020168666512
2.87	-1.63234787668408e-05
2.872	-1.21778054874579e-05
2.874	4.50440172909608e-05
2.876	8.62077752363834e-05
2.878	-1.3567869097863e-05
2.88	0.000101264805371304
2.882	6.06295335834507e-05
2.884	0.000166363513532903
2.886	0.000187140458328165
2.888	3.58259850249242e-06
2.89	2.58422952522538e-05
2.892	0.00017635112433402
2.894	0.000270723173478612
2.896	0.000199997486779639
2.898	6.49253175181957e-05
2.9	7.66375799521526e-05
2.902	0.000201249501119061
2.904	-0.000103781346832314
2.906	-3.85906085186559e-05
2.908	-0.000110989006461284
2.91	9.59265152351977e-05
2.912	-0.000195108626426905
2.914	-0.000119244377576814
2.916	-4.8328500837098e-05
2.918	-1.50655819675227e-05
2.92	-0.000101119344639838
2.922	-0.000149942401762332
2.924	-7.34691472811084e-05
2.926	-9.37110398591397e-05
2.928	-0.000188317168276834
2.93	-0.000209443801658456
2.932	-3.34046144788262e-05
2.934	8.00622548459527e-05
2.936	0.000188170533168526
2.938	0.000371908285065889
2.94	-8.85810079968132e-05
2.942	-0.000794177318176661
2.944	-0.000789019670388213
2.946	-0.000629017033521425
2.948	-0.000356060573403097
2.95	-9.6948209603948e-05
2.952	-3.6855891128782e-05
2.954	3.05315323589367e-05
2.956	-2.96026578034284e-05
2.958	-0.000210779329811673
2.96	3.13983569454322e-05
2.962	-0.000136176042173228
2.964	-6.8429993721988e-05
2.966	-9.61593120620716e-05
2.968	5.6499009901398e-05
2.97	-0.000177264932122014
2.972	7.2842288569455e-05
2.974	-7.1755808809255e-05
2.976	-8.47293248781081e-05
2.978	-0.000124060970878197
2.98	-6.70621376973953e-05
2.982	-9.85463749967722e-05
2.984	-5.96912429767231e-05
2.986	0.000161948848680093
2.988	1.97123067527855e-05
2.99	-6.05937860186192e-05
2.992	0.000183140031318912
2.994	0.000123368111365715
2.996	0.000115513240365392
2.998	1.3848125681667e-05
3	0.000130194159055588
3.002	8.53702834892193e-06
3.004	-2.67246806411812e-05
3.006	-4.4430842244857e-05
3.008	-3.38212693046943e-05
3.01	4.75996525125017e-05
3.012	6.60889758248241e-05
3.014	-0.000246213145478751
3.016	-8.09704121475395e-05
3.018	-0.000204008250051173
3.02	7.16700013086646e-05
3.022	9.27638967905091e-05
3.024	-0.000131521739006709
3.026	6.59691569014036e-07
3.028	-2.16169229173912e-05
3.03	-3.33105415051572e-05
3.032	1.46211050236838e-06
3.034	-1.60999285430099e-05
3.036	-6.43960826328583e-05
3.038	-0.000164906971317651
3.04	6.90224705949018e-05
3.042	-0.00019247991797315
3.044	-9.68730159592503e-05
3.046	-0.000134026762859936
3.048	6.7751805194488e-06
3.05	7.83538752667633e-05
3.052	0.000146964846224465
3.054	0.000268159651245469
3.056	0.000145879948559984
3.058	-8.47329216676405e-05
3.06	-0.000594681677376411
3.062	-0.00072369316639607
3.064	-0.00051944959147027
3.066	-0.000300728160341702
3.068	-0.000188802867879215
3.07	-8.13029254994042e-05
3.072	-9.79572480993054e-05
3.074	-0.000101495458658519
3.076	-1.13687525729606e-05
3.078	1.26783456795091e-05
3.08	-0.000110190641880083
3.082	-0.000164265964344676
3.084	-0.000107347213637546
3.086	7.07760689664858e-05
3.088	0.000107833941399736
3.09	-0.000124895959596951
3.092	5.96009941034276e-05
3.094	-1.36449983477941e-05
3.096	-5.3153003188369e-05
3.098	0.000156527215183261
3.1	-5.92007449283551e-05
3.102	-3.71233097323156e-05
3.104	9.16588112625913e-06
3.106	-0.00015604337473078
3.108	3.20500012778183e-05
3.11	2.91612917098841e-06
3.112	-2.2356780395686e-05
3.114	8.13404748084415e-05
3.116	0.000182974002052941
3.118	0.000114679817094734
3.12	0.000370934582099568
3.122	8.79335254542549e-05
3.124	-2.83029368332445e-05
3.126	9.62752527886181e-05
3.128	5.574406036939e-05
3.13	-0.000132872337272094
3.132	-6.76881257346159e-05
3.134	-0.000188180207026218
3.136	-0.000109849460558846
3.138	-0.00011497351206565
3.14	0.00014783841204028
3.142	-5.66786746531337e-06
3.144	-0.000199229195722434
3.146	-0.000221427779393421
3.148	-0.000140229926736744
3.15	-1.96576786260588e-05
3.152	0.000144692169474886
3.154	-0.000108924159322529
3.156	-1.6163732123264e-05
3.158	-0.000116488604125949
3.16	0.000382423727226986
3.162	0.000307983569418974
3.164	-0.000364114448088271
3.166	-0.000639400509345114
3.168	-0.000875556268694134
3.17	-0.000317979128654643
3.172	-0.000171113886658843
3.174	-6.17851179112205e-05
3.176	-3.52529889372287e-05
3.178	0.000136268120059873
3.18	0.00018991313388418
3.182	0.000102837564394593
3.184	0.000196008941213114
3.186	-5.41773499544557e-05
3.188	-0.000161701169929013
3.19	-4.36924418835947e-05
3.192	-0.000110126074471949
3.194	-0.000102668841430819
3.196	-1.61161031527775e-05
3.198	-0.000122499912589738
3.2	-4.51743501738234e-05
3.202	4.79731917513999e-05
3.204	8.15701064771352e-05
3.206	1.35063765919858e-05
3.208	4.745363993567e-05
3.21	6.68104888580887e-05
3.212	4.81937474798699e-05
3.214	0.00016376766144588
3.216	-3.99778386896478e-05
3.218	0.000112144416155425
3.22	0.000226415662204232
3.222	0.000249064432105691
3.224	1.56135142772913e-05
3.226	0.000127458913127298
3.228	-2.65297771679747e-05
3.23	8.77468563859582e-05
3.232	-0.00016615495262726
3.234	-0.000119669558854234
3.236	-0.000129600765480598
3.238	-0.000276729199737791
3.24	-1.29828046848641e-05
3.242	-3.16624271499552e-05
3.244	6.89873895726348e-05
3.246	3.34561844104343e-06
3.248	4.42433726423163e-05
3.25	-0.000131286360608085
3.252	5.64273099807389e-05
3.254	-3.66898594088475e-05
3.256	-0.000107468131728457
3.258	7.94007134515287e-05
3.26	2.81756928146785e-05
3.262	-7.41326621344606e-05
3.264	-2.58414719636444e-05
3.266	-8.33401552860401e-05
3.268	-0.000137525732879175
3.27	-3.80310195134352e-05
3.272	-7.76492333003567e-05
3.274	-8.9982693322078e-05
3.276	-1.69393879600031e-05
3.278	-0.000119849447320883
3.28	-4.18210946090699e-05
3.282	0.000222811078784744
3.284	3.15302741220478e-05
3.286	6.13512264448365e-06
3.288	-0.000561265522891573
3.29	-0.000409701487991208
3.292	-0.000601482588555728
3.294	-0.00016513830660699
3.296	-7.24570833456217e-05
3.298	1.94259554298003e-05
3.3	-0.000109491880102401
3.302	-0.000119467227510472
3.304	-3.07786109432025e-05
3.306	-8.82454640969938e-05
3.308	0.000238497305834519
3.31	-0.000147476937536181
3.312	0.000121339147908296
3.314	3.11940350818824e-05
3.316	-4.32555542162292e-05
3.318	-0.000110213608419472
3.32	-7.5202649377728e-05
3.322	-5.23748527315796e-05
3.324	-0.000111843870231081
3.326	0.000187232074030658
3.328	-4.5722057305344e-05
3.33	-7.20154972460236e-05
3.332	6.15814255336644e-05
3.334	7.75128529029079e-05
3.336	-5.28864774910611e-05
3.338	5.72696963746876e-05
3.34	0.000147550293981667
3.342	0.00027170743194368
3.344	0.000111726740694635
3.346	0.000254567762388112
3.348	-9.75687976086913e-06
3.35	7.47734044359089e-05
3.352	0.000103721642834777
3.354	-0.000191771699053299
3.356	4.15689184229956e-05
3.358	-7.78828622799639e-05
3.36	-0.000149461676829437
3.362	7.80544445177955e-05
3.364	-2.39924550113635e-05
3.366	-0.000153789990921933
3.368	-0.000118936201658087
3.37	-0.000230576677478903
3.372	-0.000184973109583067
3.374	5.62415575395859e-05
3.376	0.000117643000620121
3.378	-1.20613271972809e-05
3.38	-0.000136492938570009
3.382	-3.96961845578852e-05
3.384	-0.000137077155998114
3.386	-0.000138353679974865
3.388	5.34018623518014e-05
3.39	0.000168374973081672
3.392	-2.07435653027417e-05
3.394	5.80310932171879e-05
3.396	-0.000106238852449264
3.398	-8.76981699946876e-05
3.4	-0.000105470866137132
3.402	4.69568931054314e-05
3.404	-0.000142794066497156
3.406	-8.85878246817685e-05
3.408	-3.33530839189586e-05
3.41	-0.000151368116762401
3.412	-0.000197985092565169
3.414	-0.000124386997376589
3.416	-0.000170871532121435
3.418	-0.000157987956726096
3.42	-1.56712155721852e-05
3.422	-0.000107829367257869
3.424	-1.07944751106307e-05
3.426	-0.000243141982431817
3.428	-0.000106367168884648
3.43	-0.000230765651121242
3.432	-9.24052615694722e-05
3.434	-0.000197567667989032
3.436	-5.23637552353659e-05
3.438	5.74906103227312e-06
3.44	-0.000114667847502393
3.442	-3.74685087479791e-05
3.444	3.9790785317606e-05
3.446	1.35325988144852e-05
3.448	-4.97812561542761e-05
3.45	-0.000226873957182101
3.452	-9.60962045996782e-05
3.454	-0.000256558272930866
3.456	-9.88405705331484e-05
3.458	1.63018863564377e-05
3.46	-2.09423292040272e-05
3.462	0.000197835280358801
3.464	-0.000105896718905783
3.466	-1.74282509241986e-05
3.468	-8.49212541359486e-05
3.47	-0.000188557123596134
3.472	-8.77785980160278e-05
3.474	-0.00015034311673721
3.476	-0.000181757096027222
3.478	-0.000132940201894452
3.48	-1.8260591385726e-05
3.482	0.00042847121774088
3.484	0.000160850197748183
3.486	-0.000189005469420104
3.488	-0.000582454877271478
3.49	-0.000574927118619693
3.492	-0.000413777496899563
3.494	-0.00050310077709121
3.496	-0.000434825961835812
3.498	-3.23144999965852e-05
3.5	0.000194690347007055
3.502	-0.000264196295866669
3.504	2.03660295606032e-05
3.506	0.000148317499394856
3.508	-7.85178078459207e-08
3.51	-0.000227279985810438
3.512	-1.09212082261964e-05
3.514	7.6911780675113e-05
3.516	9.95519970112795e-05
3.518	7.63598504262915e-05
3.52	0.000104898682555661
3.522	0.000124883706761028
3.524	-0.000148079874609289
3.526	0.000131027049933385
3.528	-0.000122974828559382
3.53	-1.7850668301499e-05
3.532	2.62046192827605e-05
3.534	0.000126995058837748
3.536	-7.3170267454742e-05
3.538	4.75343288598455e-05
3.54	0.000172717496786917
3.542	8.51734552484646e-05
3.544	0.000143626404441519
3.546	6.17190109712735e-05
3.548	-7.32034361902743e-06
3.55	0.00017499440166226
3.552	0.000138431979413759
3.554	0.000204262146601419
3.556	-2.98994367102138e-06
3.558	2.91002099411417e-05
3.56	0.000111403957653819
3.562	-0.000139399690958564
3.564	4.58868462273985e-05
3.566	9.34918746500927e-05
3.568	4.96854580661424e-05
3.57	7.21137620687509e-05
3.572	1.39652739758983e-05
3.574	-0.000228922055245631
3.576	-0.000282085788186632
3.578	-0.00025662861733688
3.58	-3.12427525706437e-05
3.582	-0.000166945036517504
3.584	-0.0002181518808826
3.586	-0.000126209229917976
3.588	-0.000101883469764795
3.59	-0.000237894841979354
3.592	-9.36356551801635e-05
3.594	-0.000209618126273145
3.596	-0.00017794670891909
3.598	2.90156547723981e-06
3.6	-0.00013630848587914
3.602	-0.000148097607034643
3.604	8.58265836888474e-05
3.606	2.10855475765499e-05
3.608	-3.53860898260009e-05
3.61	-5.33835379970257e-05
3.612	-0.000180246512805388
3.614	-0.000172315857512757
3.616	-2.49381942750528e-05
3.618	-0.00011077275522066
3.62	-9.01063312100671e-05
3.622	0.000134799712066354
3.624	-0.000251202067127289
3.626	-0.000233365743386176
3.628	-0.000194509567840438
3.63	-0.000375673251937629
3.632	-6.26079942185394e-05
3.634	-1.7445914257312e-05
3.636	-6.11765468466839e-05
3.638	-0.000247256588250491
3.64	-0.000246476467825788
3.642	-2.63218450759644e-05
3.644	-0.000178267421614002
3.646	1.34429713281464e-05
3.648	-0.000224626875913547
3.65	-4.03983949597882e-05
3.652	-0.000180861777205254
3.654	-0.000131026247672425
3.656	-0.000151113960601148
3.658	6.00640845435888e-05
3.66	1.30778736314835e-05
3.662	-5.52378558504729e-05
3.664	5.85272882223864e-05
3.666	-0.000180285590802598
3.668	-0.000201870069977953
3.67	8.4384724951419e-05
3.672	0.000227384919642882
3.674	0.000181341660086038
3.676	-0.00044741086240809
3.678	-0.000480331064907981
3.68	-0.000476081703626713
3.682	-0.000556304370518942
3.684	-0.000236071439017756
3.686	3.99331119217372e-05
3.688	-5.90445493824158e-05
3.69	0.000166530184526744
3.692	-4.19354077907699e-05
3.694	-6.98559727389164e-05
3.696	-0.000187957175512055
3.698	-5.24582680519976e-05
3.7	6.47489965784579e-05
3.702	0.000172887762384436
3.704	-9.21077045979593e-05
3.706	-2.44711227572718e-05
3.708	2.58614845084324e-07
3.71	2.70884413825852e-05
3.712	4.73464673855389e-05
3.714	0.000161767811665043
3.716	8.69631277407296e-05
3.718	-4.52388860623366e-05
3.72	0.000273423798881818
3.722	-3.38844302359601e-05
3.724	0.000103997069247557
3.726	0.000183857660349819
3.728	0.000196105130631165
3.73	-5.03399968605158e-05
3.732	3.67448774037917e-05
3.734	-3.11047156719546e-05
3.736	3.49153946053186e-05
3.738	4.36930729372157e-05
3.74	-8.29949581420923e-05
3.742	6.8038419774146e-05
3.744	4.63166726913801e-05
3.746	-3.32506135445792e-05
3.748	-8.01984944424974e-05
3.75	-7.94007856279429e-05
3.752	-0.000280007879629775
3.754	-0.000166303465540667
3.756	-0.000128562121514824
3.758	-2.84471236088479e-05
3.76	-1.58064569017837e-05
3.762	-6.70557377140158e-05
3.764	-9.46238524218593e-06
3.766	-2.8366128068709e-05
3.768	2.37905258601639e-05
3.77	-8.47473745047059e-05
3.772	-4.9993515780125e-05
3.774	5.67975670999649e-05
3.776	0.000125427536800645
3.778	0.000420808047384943
3.78	-0.000186949952291789
3.782	-0.000610236488016308
3.784	-0.000756854316066269
3.786	-0.000539980021848481
3.788	-0.000354856813396918
3.79	2.32277244382865e-05
3.792	-0.000289446992179766
3.794	-0.00011625056125781
3.796	0.000191346840160061
3.798	0.00011760519168669
3.8	-3.70403740501115e-05
3.802	-0.000138784139281416
3.804	-8.40675249838078e-05
3.806	-8.93468373698191e-05
3.808	4.53503122462931e-05
3.81	0.000163350173754398
3.812	-1.14971372980326e-05
3.814	1.26981825596625e-05
3.816	1.72670522796782e-05
3.818	0.000179373161963219
3.82	3.07313794518112e-05
3.822	9.7851113639086e-05
3.824	-2.89381818403479e-05
3.826	0.00014159766412056
3.828	-5.40631639846546e-05
3.83	0.000133377803794057
3.832	-2.72842163349116e-05
3.834	0.000389782806611216
3.836	9.61958999594104e-05
3.838	-1.94408789746301e-05
3.84	4.41577216212863e-05
3.842	0.000192517159001652
3.844	5.10490155139738e-05
3.846	-0.000128686201016681
3.848	9.67650982642415e-05
3.85	-3.88684857775323e-05
3.852	-0.000136953173601253
3.854	9.13665059857655e-05
3.856	-4.45456983146206e-05
3.858	-0.000181143336889936
3.86	0.000106938441754846
3.862	3.49103668608907e-05
3.864	-0.00021738890729447
3.866	-4.64931744580756e-05
3.868	1.10343621876124e-05
3.87	-0.000138826416882969
3.872	3.24259389891994e-06
3.874	-4.63883327568148e-05
3.876	-5.59968126435334e-05
3.878	-0.000136491563239411
3.88	9.58084907516776e-05
3.882	5.81151293031965e-06
3.884	-5.36278071210377e-05
3.886	-3.89766036945211e-05
3.888	8.79541281781859e-05
3.89	-8.3698890689438e-05
3.892	-0.000131635149526473
3.894	-2.83467935481977e-05
3.896	1.87991378032071e-05
3.898	-0.000115387422376779
3.9	-0.000214158555296732
3.902	-0.000258930868284685
3.904	-0.000203613367300836
3.906	8.42815070288962e-05
3.908	2.23412693328633e-05
3.91	-0.000207594929040936
3.912	-0.000105429564037614
3.914	-4.83089148559982e-05
3.916	-0.00014944019418305
3.918	-5.14558864599304e-05
3.92	-0.000155214677873544
3.922	-0.0001911302363844
3.924	-0.000170096967945565
3.926	9.06071559960733e-06
3.928	-9.43513940055027e-05
3.93	-8.41502391409784e-05
3.932	-4.28817001161043e-05
3.934	-0.00014572221372619
3.936	-0.000110682991168265
3.938	8.41018866215215e-06
3.94	3.83444887253458e-05
3.942	-6.81722072251378e-05
3.944	-4.11154116538005e-05
3.946	-0.000145603898302016
3.948	-0.000115078478337832
3.95	-0.000107306460031766
3.952	6.22880665177393e-05
3.954	4.96558600050884e-05
3.956	0.000387072560402343
3.958	-9.32787745455791e-05
3.96	-0.000423703478585764
3.962	-0.000699219995948503
3.964	-0.000592847288540082
3.966	-0.00040615407309735
3.968	-0.00039750085167602
3.97	-6.06482635119279e-05
3.972	-6.94995560978819e-05
3.974	0.00020212184550945
3.976	0.000106256659302448
3.978	-1.45999554063277e-05
3.98	-3.69143562005213e-05
3.982	1.121576726242e-05
3.984	6.91932594042294e-05
3.986	0.000155658416735722
3.988	5.0430831494538e-05
3.99	0.000131527406651688
3.992	1.32796887076404e-05
3.994	0.000164376350618086
3.996	1.86995394529652e-05
3.998	-3.99880467990424e-05
4	0.000194102662682211
4.002	0.000182899169409274
4.004	3.16630206912443e-05
4.006	3.48813859970751e-05
4.008	0.000239942289939781
4.01	6.45705912684391e-05
4.012	0.000126966036918211
4.014	0.000232394334226881
4.016	0.000120469166179779
4.018	1.76688063813231e-05
4.02	8.86262087014115e-05
4.022	0.000227083906071854
4.024	4.38207688778509e-05
4.026	0.000214951861235991
4.028	5.37723828114461e-05
4.03	-6.17411711484863e-05
4.032	-9.0270385217578e-05
4.034	9.20139431670625e-05
4.036	2.6772305726582e-05
4.038	-4.41584107297499e-07
4.04	-0.000182822659261373
4.042	0.000111254088868322
4.044	-5.26578322647158e-05
4.046	-1.65361922616927e-05
4.048	7.98435270504462e-05
4.05	-0.00018610279404524
4.052	-2.04364976667527e-05
4.054	-0.00020851727186409
4.056	-0.00027547436094939
4.058	6.39831051191667e-05
4.06	-6.22577908365367e-05
4.062	-3.05726684858997e-05
4.064	-0.000174794615732959
4.066	-3.33951040821669e-05
4.068	-0.000141851418105579
4.07	-4.28432915120493e-06
4.072	-0.000118463366709087
4.074	5.72092410389489e-05
4.076	0.00049388707942479
4.078	0.000338856661798337
4.08	-0.000321887010193848
4.082	-0.000672068435308642
4.084	-0.00080025153369111
4.086	-0.00039695917032307
4.088	-1.21985431280655e-05
4.09	0.000143758137590943
4.092	-2.19041288832618e-05
4.094	6.16491761083038e-05
4.096	5.00806994122897e-05
4.098	1.36374421558238e-05
4.1	-6.55908983478081e-05
4.102	-7.27268969915761e-05
4.104	3.05381527390058e-06
4.106	-3.57605070369785e-05
4.108	-4.19040229310534e-05
4.11	5.27471822209414e-05
4.112	8.73272667258853e-05
4.114	1.76263792349202e-05
4.116	4.53155168541742e-05
4.118	0.000142857805956605
4.12	-3.7372836902376e-05
4.122	7.75704717162262e-05
4.124	0.000101519589532512
4.126	2.39837544404865e-05
4.128	4.05462281179957e-05
4.13	7.33862031514968e-05
4.132	7.22567339012034e-06
4.134	0.000218226680150086
4.136	8.63637087313744e-05
4.138	2.71118271399078e-05
4.14	9.38537365576139e-05
4.142	0.00027390082310288
4.144	-7.38521848784404e-05
4.146	0.00014010549691162
4.148	0.000138002682406669
4.15	8.53397310790828e-05
4.152	-0.000166222503116957
4.154	0.000137014694121589
4.156	-9.67459864096935e-05
4.158	-5.04702252091961e-05
4.16	-0.000150246504443445
4.162	-0.000101294176417879
4.164	-0.000244143038062004
4.166	-0.000139435800249729
4.168	-0.000200639657356245
4.17	-0.000150672967411359
4.172	-7.64554912397058e-05
4.174	-0.000100384754399316
4.176	-7.63826924494956e-06
4.178	-9.54685848733819e-05
4.18	-0.000379919163167125
4.182	-0.00014745278369431
4.184	3.04674437724187e-05
4.186	2.85837555830581e-05
4.188	0.000131022244104161
4.19	-0.000147403274629371
4.192	7.95619172300856e-05
4.194	-2.12664420208109e-05
4.196	0.00012296523709732
4.198	0.000186400043074488
4.2	0.000416872324583153
4.202	9.90299512321875e-05
4.204	-0.00053212366145918
4.206	-0.000848168695724168
4.208	-0.000682889912789832
4.21	-0.000574367812803408
4.212	-0.00023968887452518
4.214	-0.00032654992357743
4.216	1.29151344706674e-05
4.218	6.72373686964027e-05
4.22	-0.000183767102044288
4.222	-6.19234817308084e-05
4.224	-0.000102460899282594
4.226	-9.35726751235613e-05
4.228	4.43059328648164e-05
4.23	-5.72536579372167e-05
4.232	-0.000103781308766693
4.234	-0.000143171300799952
4.236	1.87192696819123e-05
4.238	2.78803789553368e-05
4.24	1.3658873181898e-05
4.242	6.01527977312576e-05
4.244	8.91890024974959e-05
4.246	0.000145958928015389
4.248	-6.68668345289461e-06
4.25	7.41600916132797e-05
4.252	0.000117760697665136
4.254	0.000106966541800357
4.256	0.000152732697019294
4.258	-2.0551414052894e-05
4.26	0.000140357932499282
4.262	1.98542301145078e-05
4.264	5.6762103665297e-05
4.266	0.000246890441183911
4.268	3.56543076584517e-05
4.27	4.98849219545722e-05
4.272	-0.000275513743696531
4.274	2.21235412136357e-05
4.276	6.54452066557921e-05
4.278	-0.00022167582485238
4.28	-0.000114287705306602
4.282	-0.000168224888782194
4.284	-0.00029455987058387
4.286	-0.000247950547021862
4.288	-9.04144488108812e-05
4.29	-8.88410469974235e-05
4.292	-8.73039615208557e-06
4.294	-0.0001266518051917
4.296	-0.000120484259537336
4.298	0.000122726371266729
4.3	-0.000151312159912106
4.302	-0.000112704880136209
4.304	1.35897855799917e-05
4.306	3.9923819564795e-05
4.308	4.28731397517485e-06
4.31	0.000202149164563611
4.312	0.000212603905708134
4.314	-0.000182142455149967
4.316	-0.000589607817957186
4.318	-0.000527696522212789
4.32	-0.000369669706256969
4.322	-0.000194031925199754
4.324	-0.000322283993472873
4.326	6.79857940586462e-05
4.328	-0.000100249659110376
4.33	-4.44254779810393e-05
4.332	-2.64953158445405e-05
4.334	-0.000211913956133586
4.336	0.000124206227784468
4.338	-1.62913320389014e-06
4.34	4.93216316759854e-05
4.342	-3.79240930776725e-05
4.344	1.52765016660194e-05
4.346	-2.16651185947282e-05
4.348	-3.60119572307919e-05
4.35	0.000134088622657105
4.352	1.65842799116281e-05
4.354	-9.5499929083171e-05
4.356	0.000113729071386179
4.358	6.27306374107523e-05
4.36	-3.01430797559214e-05
4.362	-4.9466720087278e-05
4.364	0.000160294562341097
4.366	5.37112965465e-05
4.368	-4.00607181099063e-05
4.37	4.676598666568e-05
4.372	0.000116394877803154
4.374	6.2046137537058e-05
4.376	1.4430493299291e-05
4.378	-0.000163087151469179
4.38	-0.000142569786504539
4.382	-1.95945297431164e-05
4.384	-0.000242786548410321
4.386	-0.000161614034631101
4.388	-0.000123651789425111
4.39	-0.000167568463274008
4.392	-0.00015256878218261
4.394	3.83173516753814e-05
4.396	-0.000256712632806175
4.398	-5.13110230167415e-06
4.4	-0.000101172546530486
4.402	-7.24596045226951e-05
4.404	1.10319720751322e-05
4.406	1.21493049479756e-05
4.408	0.00028582793554059
4.41	-0.000179334484824026
4.412	6.90436243153483e-05
4.414	7.49436264203306e-05
4.416	5.29578760763143e-05
4.418	-1.91998948212313e-06
4.42	-1.92064892030894e-07
4.422	-0.000370033321385513
4.424	2.24922332235656e-05
4.426	-1.55829111444308e-05
4.428	3.77711877963234e-05
4.43	-9.97392020598209e-05
4.432	-6.35853336124089e-05
4.434	-8.37930091302587e-05
4.436	-0.000228649275016419
4.438	8.8370574037656e-05
4.44	-0.000299080349555671
4.442	-7.0913419279472e-05
4.444	-0.000153348077320757
4.446	-8.72479975986297e-06
4.448	-7.28923354779459e-05
4.45	-0.000290969659576001
4.452	6.78223608192154e-05
4.454	-0.000148668736309216
4.456	-0.000215205094405038
4.458	-0.000135008166788231
4.46	1.34316407004288e-05
4.462	-8.09202835139765e-05
4.464	-0.000328826134540964
4.466	0.000111462033773728
4.468	-7.92822250919167e-05
4.47	5.36831489658883e-05
4.472	5.8173624625991e-05
4.474	4.5404405572011e-05
4.476	3.86441213566423e-05
4.478	0.000302149967473337
4.48	0.000139392618657259
4.482	-0.000143849387858587
4.484	-0.00064100335762907
4.486	-0.000655051913876161
4.488	-0.000682461425802449
4.49	-0.000213554492198091
4.492	-0.000130482010669774
4.494	5.84185174141377e-05
4.496	3.9151991049876e-05
4.498	0.000167575381302486
4.5	-8.67140366683681e-05
4.502	-0.00016270871238605
4.504	-0.000129169458968288
4.506	5.45135568464925e-05
4.508	2.05912625946616e-05
4.51	3.68963137386038e-05
4.512	2.58508828986831e-05
4.514	-7.56774523936984e-06
4.516	-0.000129571421627218
4.518	8.04970165865281e-05
4.52	0.00023712598657668
4.522	-4.26091911052802e-05
4.524	0.000196179620354767
4.526	0.000229124501791605
4.528	-1.64873569290576e-06
4.53	9.34632937685049e-05
4.532	0.00013391552884736
4.534	0.000231422464615101
4.536	0.000230991677129449
4.538	0.000135612179904284
4.54	0.00014159683872734
4.542	6.57527809635011e-05
4.544	0.000131586027408432
4.546	-4.090047015674e-05
4.548	0.000135356517481724
4.55	0.000289103207348027
4.552	0.000135344429574731
4.554	-0.000157725903391266
4.556	0.000111770670945824
4.558	-0.00020693817869312
4.56	8.2516203459343e-05
4.562	-4.88318467208121e-05
4.564	-0.00019419554190446
4.566	-0.000158513837396866
4.568	-2.34018663768336e-05
4.57	4.53684332381267e-05
4.572	-0.000145414535008838
4.574	-0.000187405553048322
4.576	-0.000139578006465834
4.578	6.59817855123139e-06
4.58	2.80248700640605e-05
4.582	-6.20865741122742e-05
4.584	8.59134553208218e-05
4.586	-6.70662930851138e-05
4.588	2.09014913284088e-05
4.59	-0.000147871257057153
4.592	-3.05658939089353e-05
4.594	2.69805822569865e-05
4.596	2.2699545448633e-05
4.598	0.000256487985267813
4.6	0.000175433181662833
4.602	-0.000438965535008693
4.604	-0.000816195794540568
4.606	-0.000641284774841476
4.608	-0.000135092745378158
4.61	2.9207717165525e-05
4.612	0.000260436186567438
4.614	7.57085033405842e-06
4.616	5.03937283163937e-06
4.618	-1.34441549228296e-05
4.62	-3.53955437460279e-06
4.622	0.000127703883679236
4.624	0.000110375282072731
4.626	0.000433346439726245
4.628	0.000142604477579151
4.63	-0.00021780014990501
4.632	-7.68954174607213e-05
4.634	2.55297067225727e-05
4.636	-7.10509365169519e-05
4.638	-2.10460340875429e-05
4.64	1.39974147809814e-05
4.642	-1.25321014362676e-05
4.644	-0.000154659820150324
4.646	3.62938581736242e-05
4.648	-5.80988901124423e-05
4.65	8.07063614693176e-05
4.652	-0.000196117952601296
4.654	9.03802936989475e-05
4.656	5.73031235427895e-05
4.658	0.000123698025301376
4.66	4.07896699137083e-05
4.662	-1.74242284784043e-05
4.664	8.44315085875462e-05
4.666	0.00010426345803578
4.668	-2.27116547021472e-05
4.67	-9.0506926316748e-05
4.672	-4.85527037829138e-05
4.674	-0.000205816642160977
4.676	-0.000239715356801485
4.678	-0.000250816363375995
4.68	-2.64785262182947e-05
4.682	-5.22408472222162e-05
4.684	-6.92735643454668e-05
4.686	0.00027089800650963
4.688	-1.81414154318678e-05
4.69	-4.07608195613511e-06
4.692	-9.0024406921983e-05
4.694	-0.000254663371139744
4.696	4.51847178625425e-05
4.698	4.57765908718182e-05
4.7	-2.84017430557449e-05
4.702	-0.000292569612144981
4.704	-3.97478479232759e-06
4.706	-4.04169361987981e-05
4.708	0.000156881343226752
4.71	-6.3627503380209e-05
4.712	-6.9358451723276e-05
4.714	-1.17890815149921e-05
4.716	0.000298692595941345
4.718	0.000180723294208269
4.72	-0.000337827592573124
4.722	-0.000433008842712105
4.724	-0.000723175291301402
4.726	-0.00040209989520461
4.728	-0.000165194907771026
4.73	-0.000204116623935734
4.732	1.56485074287163e-05
4.734	-5.50858247837111e-05
4.736	-7.65935732695023e-05
4.738	9.43441580622228e-05
4.74	4.51995669268452e-05
4.742	-0.000104265159613472
4.744	6.68505532545201e-05
4.746	-6.70595004347579e-05
4.748	-7.74230658254539e-05
4.75	-1.46365037178302e-05
4.752	-0.000113414206753744
4.754	-4.47506124678371e-05
4.756	-6.67660612931566e-05
4.758	-3.2035419010459e-05
4.76	5.63255560161629e-06
4.762	0.000270354094155062
4.764	0.000150493083618339
4.766	3.9950573388746e-05
4.768	0.000199335142308349
4.77	0.000197511161396021
4.772	0.00019544936845448
4.774	0.000101388288404478
4.776	-4.34959510546466e-05
4.778	0.000160791257482239
4.78	0.000144555021973442
4.782	-1.27085026320298e-05
4.784	0.00025459717059478
4.786	-1.26385150983569e-05
4.788	7.3840437525936e-05
4.79	-0.000139524891172208
4.792	8.13780336835106e-05
4.794	-0.000108691417161498
4.796	-0.000146258139513147
4.798	-7.7220947481772e-06
4.8	-0.000120598337264424
4.802	8.09265204651125e-05
4.804	9.47018184737678e-05
4.806	-8.36097242020074e-05
4.808	0.000166992033225312
4.81	-0.000137607205064872
4.812	-0.000157316059797417
4.814	-0.000192586452832718
4.816	-0.000173317710419686
4.818	-1.59531185617223e-05
4.82	-0.000107913150312801
4.822	8.9227635989362e-06
4.824	-3.8417090559449e-05
4.826	-0.000130830288367158
4.828	-0.000116528594960057
4.83	-0.000164526072145073
4.832	-6.39941030940563e-05
4.834	-0.000110679253664546
4.836	2.37871646301135e-07
4.838	-0.000411295987171082
4.84	8.36777248538808e-05
4.842	-0.000176764045705998
4.844	7.31725086512957e-05
4.846	-1.89640388773241e-05
4.848	0.000237750255437381
4.85	-0.000497532737415537
4.852	-0.000445714650771758
4.854	-0.000690646073421926
4.856	-0.0004603790287477
4.858	-0.000277744942355273
4.86	-8.91703276849307e-05
4.862	-4.34608492810509e-06
4.864	-1.05287275064577e-05
4.866	-5.18514405834322e-05
4.868	-0.000156939849748796
4.87	-0.000134758036596961
4.872	3.71471401374817e-05
4.874	4.19305099139856e-05
4.876	-0.000100735359205225
4.878	0.000161731304620517
4.88	-2.08844248145515e-05
4.882	0.000123654678195184
4.884	-9.59207964882681e-05
4.886	0.000148493437766394
4.888	8.59750214510092e-06
4.89	6.02575202359528e-05
4.892	-0.000140524134477668
4.894	6.19285342430933e-06
4.896	0.000208633771952672
4.898	2.07009317748317e-05
4.9	3.19187869449673e-05
4.902	0.000131733695736324
4.904	0.000122738577819672
4.906	5.07260376094994e-05
4.908	9.09570892119364e-05
4.91	0.000136773709711331
4.912	6.04611002625263e-05
4.914	-5.67540792203802e-05
4.916	0.000152339375530853
4.918	4.18882171297595e-05
4.92	-1.10027749577134e-05
4.922	7.92956811795634e-05
4.924	-0.000240416769329641
4.926	4.51842572565948e-05
4.928	-7.32652748276923e-05
4.93	-4.36737135738198e-05
4.932	-7.32134393532636e-06
4.934	-0.000277643087892537
4.936	7.82523291582541e-05
4.938	-0.000136243188098714
4.94	-0.0003638017721488
4.942	-0.000313821304121783
4.944	-5.43847201304272e-06
4.946	-0.000119108379661896
4.948	-0.000143455173415867
4.95	-0.000105458631280237
4.952	-0.000239385236839781
4.954	-9.98702286720904e-05
4.956	-0.000190917676933327
4.958	-0.000110634126859141
4.96	3.90647554824929e-05
4.962	-5.13460880464322e-05
4.964	3.94416700878022e-05
4.966	3.1549202403481e-05
4.968	-7.53947124911939e-05
4.97	-9.83824931467559e-05
4.972	-1.46546448324584e-06
4.974	-0.000202129319918141
4.976	-9.93392798473535e-05
4.978	-3.46824529028065e-05
4.98	-3.83092474147588e-05
4.982	-0.000164736132748721
4.984	-8.29303495669281e-05
4.986	-0.00010584738244461
4.988	-0.000226964151638662
4.99	-0.000207226595350156
4.992	-0.000162160144575089
4.994	-1.11024861382594e-05
4.996	-5.20165392457517e-05
4.998	5.13007307689116e-06
5	-4.62398393413405e-05
5.002	-9.76754956032789e-05
5.004	-0.000129344605517507
5.006	-0.000116429492527832
5.008	-1.8606797715258e-06
5.01	-8.9095065158377e-05
5.012	-9.62139990456502e-08
5.014	-9.97447039175897e-05
5.016	-0.000298140592557806
5.018	-0.00010830583761042
5.02	-5.63932158649043e-05
5.022	-0.000139408907241455
5.024	-7.50868752026498e-05
5.026	-0.000231917783269217
5.028	-0.000145473917244926
5.03	-0.000169098159092357
5.032	-0.000119972835246808
5.034	-4.83612473725755e-05
5.036	-3.73030061067587e-05
5.038	2.2532804035016e-06
5.04	-1.71229080305975e-06
5.042	-0.000151955188115085
5.044	4.78293440637185e-05
5.046	-9.69239207836283e-05
5.048	-0.000209457317033317
5.05	-0.000204741890567928
5.052	-0.000200892096967666
5.054	-0.000235269325079124
5.056	3.85855419795008e-05
5.058	-0.000113168420835602
5.06	5.59188831207076e-05
5.062	-3.52150072130275e-05
5.064	0.000270869661831706
5.066	0.000330021748433784
5.068	-6.96517439292715e-05
5.07	-0.000340933816895494
5.072	-0.000423538867303645
5.074	-0.000632989612748932
5.076	-0.000506720232300753
5.078	-0.000159828519769734
5.08	-0.00012766449694516
5.082	-7.23547214324758e-05
5.084	5.08848675847645e-05
5.086	-7.95549482962144e-06
5.088	7.57089787929966e-05
5.09	-8.24185886442419e-06
5.092	0.000117944861114138
5.094	-7.04507235615867e-05
5.096	-1.39129546646096e-05
5.098	-2.48424507547644e-05
5.1	-4.39193489220539e-06
5.102	-0.000116170883676145
5.104	8.53549044444944e-05
5.106	-4.82488968805414e-05
5.108	-7.14327754920944e-05
5.11	0.000316053497064883
5.112	-3.76094490782169e-05
5.114	-0.000168658513812797
5.116	6.06859190503967e-05
5.118	-5.55892587897584e-06
5.12	0.000268780152524533
5.122	0.000133496610781301
5.124	0.000114537283370617
5.126	3.33158606152403e-05
5.128	5.89545043818883e-05
5.13	-0.000123210500983384
5.132	-8.59346645737768e-06
5.134	0.000163939740333109
5.136	-9.10580521900929e-05
5.138	-6.7880878156909e-05
5.14	4.53838789680378e-05
5.142	1.48729832939357e-05
5.144	3.21094866621368e-05
5.146	4.21789845541684e-05
5.148	-7.84844834517481e-05
5.15	0.000197467159907553
5.152	-8.44614704085587e-05
5.154	2.71571751456521e-05
5.156	-8.9463577148681e-05
5.158	-2.76335545790557e-05
5.16	-0.000205816312149396
5.162	-3.08676843427386e-07
5.164	-5.41877089848548e-05
5.166	-0.000166667159973649
5.168	2.63973765224055e-05
5.17	-0.000222745245801032
5.172	0.000125833512963611
5.174	0.000425696677722931
5.176	0.000297217285443539
5.178	-0.000290928242865851
5.18	-0.000635368977057137
5.182	-0.000711812162991856
5.184	-0.000388956103224462
5.186	-0.000250748509325024
5.188	5.84867100614782e-05
5.19	9.37875127440088e-05
5.192	-2.64447180630159e-05
5.194	-8.88526722541666e-05
5.196	0.000167753374572624
5.198	-0.000218782872647032
5.2	0.000115689309236526
5.202	6.3860391811479e-05
5.204	9.38268001207074e-05
5.206	0.000118029417101518
5.208	-0.000274280942024966
5.21	4.11380540971257e-05
5.212	1.1835183899419e-05
5.214	1.69860112041337e-05
5.216	-5.19783210849822e-05
5.218	-0.000129764620396158
5.22	-3.55219472999327e-05
5.222	0.000119374840335792
5.224	9.72382485704232e-05
5.226	0.000157525509572613
5.228	0.00019836826285182
5.23	-8.95229665498154e-06
5.232	0.000105077915565823
5.234	0.000164354820209934
5.236	2.06979429407562e-05
5.238	0.000258635953019297
5.24	0.000182417970421392
5.242	3.6037420601239e-05
5.244	4.8599781847487e-05
5.246	7.23910711621136e-05
5.248	-8.62939319338799e-05
5.25	-0.000235223391356868
5.252	-4.73218886356221e-06
5.254	-5.24746346294576e-05
5.256	-0.000196156267040128
5.258	7.17305467296564e-05
5.26	-1.04910772135343e-05
5.262	-7.03098014547507e-05
5.264	-5.75906977685658e-06
5.266	-4.95406875720435e-05
5.268	-0.000118123448959817
5.27	-0.000232884533382781
5.272	-8.8804776698951e-05
5.274	1.27166132578666e-05
5.276	-0.000115471550383416
5.278	-0.000113664239099912
5.28	0.000138170632716542
5.282	6.31334936347153e-05
5.284	0.000108933393073481
5.286	-0.000127291808229987
5.288	0.000205368864214948
5.29	0.000513754963457823
5.292	-0.000206592727506055
5.294	-0.000834310326526435
5.296	-0.000555270669173128
5.298	-0.00050307467438577
5.3	-0.000158383990147829
5.302	-0.000288328357781828
5.304	4.481747460527e-05
5.306	-8.86299232777563e-05
5.308	7.07959734691571e-06
5.31	-0.000251892091088773
5.312	2.1339456723039e-05
5.314	-0.000282121779457644
5.316	-6.74809559447033e-07
5.318	-2.8020254289578e-05
5.32	-2.19837084802734e-05
5.322	8.17739400934207e-05
5.324	-3.40300788275719e-05
5.326	-1.92499244282118e-05
5.328	6.97050822105453e-05
5.33	0.000210058725553823
5.332	3.19642236588387e-05
5.334	2.21072672424827e-05
5.336	-4.3670544353442e-05
5.338	0.000278040128949519
5.34	0.000181200727578822
5.342	0.000155423880505997
5.344	0.000266827895654801
5.346	0.000140644712264833
5.348	4.5780082842681e-05
5.35	6.79387041462718e-05
5.352	0.000170875281169905
5.354	0.000279742393220075
5.356	0.000128201320874929
5.358	-2.45759211791823e-05
5.36	-1.88769480070903e-05
5.362	-5.36774935400371e-06
5.364	-9.00191579740054e-05
5.366	-0.000241543920272854
5.368	-0.000157935717500258
5.37	-0.000153562417254877
5.372	-0.000197941833232454
5.374	-0.00014060199781452
5.376	-7.47097374505538e-05
5.378	-0.000165980786773919
5.38	-8.56912972252069e-05
5.382	5.18407460474822e-05
5.384	1.31358215386511e-05
5.386	1.26463370456197e-05
5.388	-5.00160687671508e-05
5.39	-7.75159711369322e-06
5.392	-0.0001334369323983
5.394	-7.29217998717044e-05
5.396	-0.000307314403195235
5.398	-3.71455732741702e-05
5.4	-0.000278907859817276
5.402	-8.61799781051113e-05
5.404	0.000253283007931454
5.406	0.000530198125472979
5.408	0.000134005755013202
5.41	-0.000677869838509107
5.412	-0.000737444572064857
5.414	-0.000589147986494767
5.416	-0.000331133810647556
5.418	-0.000132382512138802
5.42	3.6566982254338e-05
5.422	-3.78288003828093e-05
5.424	6.88356369943373e-05
5.426	1.0424947237158e-05
5.428	4.80662190444661e-06
5.43	-6.72761396138337e-05
5.432	5.00265039327813e-05
5.434	0.000100887988287548
5.436	0.000144136233963358
5.438	6.20380920886095e-05
5.44	-0.000154303414670204
5.442	0.000205507449271438
5.444	-3.96069172542458e-05
5.446	9.675603292732e-05
5.448	-0.00026691148159932
5.45	0.000295298560762171
5.452	-7.19229926979295e-05
5.454	-2.38001870492901e-05
5.456	2.98921531952787e-05
5.458	0.000102065522682132
5.46	-3.47539983830275e-05
5.462	0.000178450509686586
5.464	-0.000135365597989302
5.466	7.77307225338951e-05
5.468	9.68282200459924e-05
5.47	4.8518930163004e-05
5.472	-0.00011387621068555
5.474	8.85889159392654e-05
5.476	-8.12039165659215e-05
5.478	6.56819426387232e-05
5.48	-5.85056177260409e-05
5.482	1.96528506753709e-05
5.484	9.51126130701404e-06
5.486	-3.80030151681603e-05
5.488	-5.01001503958366e-05
5.49	-0.000111282040807593
5.492	-1.83951811651733e-05
5.494	-0.000189758701101299
5.496	-0.00010594469671292
5.498	-9.79689926256098e-05
5.5	-0.000135515003569016
5.502	-0.0001338612727486
5.504	-0.000148886048622019
5.506	-3.4952020690691e-05
5.508	6.57039056177674e-05
5.51	3.47549569347956e-05
5.512	-0.000222434914232654
5.514	-6.6938678582322e-05
5.516	-2.40116061498106e-05
5.518	-0.000149355760270946
5.52	-7.63662346604026e-05
5.522	1.06207125312262e-05
5.524	-0.000155335890427613
5.526	-7.35052878846168e-05
5.528	1.48663037504502e-05
5.53	-9.08993691069361e-05
5.532	3.48193418020118e-05
5.534	-3.2327601310136e-05
5.536	-0.000150664651694933
5.538	6.25386458554061e-05
5.54	-7.12950204006054e-05
5.542	-0.000240152671277926
5.544	-0.000177886210241072
5.546	-0.000217585260309175
5.548	-0.000285237877402816
5.55	1.4169867124253e-06
5.552	0.000213162506059709
5.554	0.000246400632456332
5.556	-0.000271218241124372
5.558	-0.000559047787031706
5.56	-0.000685917155729023
5.562	-0.000575423024835839
5.564	-0.000218097231620865
5.566	-0.000159061776276504
5.568	-1.04828851978427e-05
5.57	-7.84603804244755e-05
5.572	-3.77239463341036e-05
5.574	9.78031300629417e-05
5.576	-8.689332461944e-05
5.578	-0.000282012035026656
5.58	-5.85457310649507e-05
5.582	5.67176776307368e-06
5.584	0.000103124954649149
5.586	-4.67024103241739e-05
5.588	-1.95971805989823e-05
5.59	3.62770687079249e-05
5.592	4.59545186022181e-05
5.594	9.56741047932057e-05
5.596	-9.9836036719343e-05
5.598	5.45130959018366e-05
5.6	-5.25748782831659e-05
5.602	2.39070092271588e-05
5.604	0.000159039340701212
5.606	-1.87648032232115e-05
5.608	0.000198528020672807
5.61	5.02858412606595e-05
5.612	-2.4853987640884e-07
5.614	0.000125879839959302
5.616	-4.96587773953851e-05
5.618	1.2550899183105e-05
5.62	1.34124039256515e-05
5.622	-6.21860990888789e-05
5.624	7.3468106782949e-05
5.626	0.000109341530519385
5.628	-7.10979880369163e-05
5.63	4.7665400208643e-05
5.632	-0.000161357409999518
5.634	-1.98548691361421e-06
5.636	-0.000164591110312218
5.638	-0.000175536270035919
5.64	1.73568358940472e-05
5.642	-0.000128281746155028
5.644	-0.000218204173969415
5.646	-9.64910604078836e-05
5.648	-0.000215538097827167
5.65	-0.000241236067417251
5.652	1.76662767462218e-07
5.654	3.47805652471023e-05
5.656	0.000152531187480175
5.658	-0.000667924376000624
5.66	-0.00077959963075
5.662	-0.000762336419650673
5.664	-0.000558028007697797
5.666	-0.000228150953128353
5.668	-0.0001800667211559
5.67	-8.75398571364762e-06
5.672	-1.05539990397419e-05
5.674	-9.71864132718793e-05
5.676	0.000369894949533602
5.678	0.000115594347565947
5.68	7.80390526048319e-05
5.682	-2.19607339327186e-05
5.684	-0.00021208081487308
5.686	-0.000112724232584832
5.688	-8.59325601472654e-05
5.69	1.32743555724229e-05
5.692	-7.62408448673097e-05
5.694	-5.66949146355785e-06
5.696	6.57435687979172e-05
5.698	-4.12143845474681e-05
5.7	-0.000124611649901253
5.702	3.38615722191196e-05
5.704	6.24552153336549e-05
5.706	-0.000108750408621518
5.708	0.000179684946436514
5.71	5.03633179052559e-05
5.712	-7.48145552920412e-06
5.714	1.72384663283684e-05
5.716	0.000176313391184997
5.718	8.58806926868705e-05
5.72	7.2576114731844e-05
5.722	8.65456018794361e-07
5.724	8.6135042927258e-05
5.726	-6.85060863782352e-05
5.728	2.89972065099069e-05
5.73	0.00033122492161068
5.732	-3.09516140521736e-05
5.734	-9.85757505978237e-05
5.736	4.46933515253766e-05
5.738	-0.000119827432933072
5.74	-0.000119268667520799
5.742	-8.54866792078617e-05
5.744	-7.84996406087323e-05
5.746	-5.25929944598112e-05
5.748	-2.35479504969567e-05
5.75	-6.48072049516394e-05
5.752	-0.000174858148757368
5.754	-0.000110215824635195
5.756	-0.000105148525352567
5.758	-0.000117143778523193
5.76	6.31527138085189e-05
5.762	0.000172386733364883
5.764	-0.000138647292704061
5.766	-6.78485793449571e-05
5.768	-2.00067391332123e-05
5.77	9.50525719574484e-05
5.772	-1.94157085757523e-05
5.774	-6.99638200967929e-05
5.776	1.23854798296998e-05
5.778	-0.000177648614123218
5.78	-1.3468049519582e-05
5.782	-9.80756840120095e-05
5.784	-0.000236407004409683
5.786	-0.000108172929071524
5.788	-3.3299739485951e-05
5.79	2.8502433845436e-05
5.792	7.8204828201173e-05
5.794	0.0003797667536238
5.796	2.4503352905719e-05
5.798	-0.000607881852099554
5.8	-0.000741934837053469
5.802	-0.000456648836812567
5.804	-0.000321323712234929
5.806	-0.000267689273846282
5.808	-0.000148059003752277
5.81	-3.43776676531103e-05
5.812	-2.09186118844233e-05
5.814	-6.34879353209884e-06
5.816	0.000153529749922233
5.818	0.000161756327375932
5.82	-5.2425384294549e-05
5.822	0.00010358751261983
5.824	0.000133043029573924
5.826	0.000134997430586948
5.828	0.000120207155188049
5.83	9.15095976115461e-05
5.832	1.90901032236715e-05
5.834	-1.2944644835979e-05
5.836	8.9026731900421e-05
5.838	0.000125963207767911
5.84	0.000133706520113911
5.842	-7.97578110181582e-05
5.844	3.914246908037e-05
5.846	0.000149838861559849
5.848	9.57398274154218e-05
5.85	5.84734923760649e-05
5.852	8.2448065337634e-05
5.854	3.49169414913076e-06
5.856	0.000207659395655528
5.858	7.02465329030313e-05
5.86	-4.87301627738341e-05
5.862	5.5111088099062e-05
5.864	-8.29016846380348e-05
5.866	3.8601758844591e-06
5.868	-6.50953423674635e-05
5.87	3.66555664820623e-05
5.872	-0.000213012620192724
5.874	-5.6415031251228e-05
5.876	-4.50182314214659e-05
5.878	-0.000146560007762038
5.88	-6.56325040124097e-05
5.882	-1.33587255409806e-05
5.884	-0.000179393056920384
5.886	9.10283297335682e-06
5.888	0.000102340047546757
5.89	-3.52714408420085e-05
5.892	-0.000205980401540491
5.894	-7.79832536423346e-05
5.896	0.000129885421529471
5.898	-0.000106285807519427
5.9	6.78994152281643e-05
5.902	-9.16430106210264e-05
5.904	-0.000132954179146287
5.906	-4.8909016369547e-05
5.908	-8.90511412983053e-05
5.91	1.76258629869025e-05
5.912	-0.000104171253637638
5.914	-0.000223625061364656
5.916	-0.000118953753796279
5.918	-0.000199495217022906
5.92	8.70284019748389e-05
5.922	-9.60150801278994e-06
5.924	-2.27096545484703e-05
5.926	3.46870033429077e-05
5.928	-7.52246260144097e-05
5.93	-0.000109116236793312
5.932	-0.000283780366955419
5.934	0.000138960312855809
5.936	1.70614457233779e-05
5.938	0.000282378055558029
5.94	0.000221332622171423
5.942	-0.000241472630863262
5.944	-0.000613450250744372
5.946	-0.000661061074513956
5.948	-0.000342313327489044
5.95	-2.04638486480779e-05
5.952	-0.000138740731371098
5.954	0.000205067415857287
5.956	0.000219805729767474
5.958	9.05567923153686e-05
5.96	0.000114655673356734
5.962	-9.07182539404448e-05
5.964	8.97131466932449e-05
5.966	5.39816003387282e-05
5.968	0.000149150676566426
5.97	0.000128231612070759
5.972	1.61575753998447e-05
5.974	7.91840323954402e-05
5.976	9.88164525750711e-05
5.978	-5.62685027742102e-05
5.98	0.000131614215432735
5.982	4.45586557020478e-05
5.984	9.29460288862311e-05
5.986	0.000198417871208926
5.988	0.000178936857979583
5.99	0.000265633882910211
5.992	5.2537337254512e-05
5.994	6.71092434534055e-05
5.996	7.54093428686823e-05
5.998	0.000107552418944602
6	0.000149683911179669
6.002	6.42990496170953e-05
6.004	0.000361137076305548
6.006	0.000135516736621488
6.008	0.000222301786896155
6.01	-4.43417248994606e-05
6.012	-0.000112185732736207
6.014	-0.00014185719933983
6.016	8.1680966583189e-06
6.018	-2.47860762748484e-05
6.02	-0.000166956468139007
6.022	-0.000284657247154573
6.024	-0.000227494077466472
6.026	-8.37784389560082e-05
6.028	1.46326841731997e-06
6.03	0.000110802509440472
6.032	1.18765196578864e-05
6.034	3.35622015469688e-05
6.036	-5.28268947678372e-05
6.038	-0.000102581535258613
6.04	-0.000247128881177564
6.042	-1.01296377176729e-05
6.044	-0.000186883709677335
6.046	-0.000318365939028979
6.048	7.05394758472691e-05
6.05	-4.2139579774872e-05
6.052	-2.30554043391544e-06
6.054	-0.000179393220555067
6.056	-8.21244337298317e-05
6.058	-4.65543915517187e-05
6.06	0.000167877610087602
6.062	3.88297539992718e-06
6.064	-0.000144331816420404
6.066	-0.000101076005521844
6.068	-0.000181532359212726
6.07	4.28793393104905e-05
6.072	-0.000111216624769447
6.074	7.39291910612568e-05
6.076	-9.03013920205872e-05
6.078	-6.0631774505425e-05
6.08	-0.000147034948112368
6.082	-0.00011809205167036
6.084	7.61508961369998e-05
6.086	5.70721236256738e-05
6.088	-7.28396712388687e-05
6.09	5.66841555728757e-05
6.092	-3.23535658917361e-05
6.094	-0.000212123344918042
6.096	-0.000171930429594355
6.098	-0.000156353745265852
6.1	-0.000102888863331649
6.102	-4.39439405590093e-05
6.104	-6.67588434220568e-05
6.106	-0.00014846240230617
6.108	-4.80124215800871e-05
6.11	-0.000193208373475313
6.112	-5.30582095378271e-05
6.114	-0.000275598215330576
6.116	-9.17086743125117e-05
6.118	1.40808691352665e-05
6.12	-6.03875368430799e-05
6.122	0.000142208105987744
6.124	9.03132307695634e-05
6.126	0.000251625380479668
6.128	-0.000111779014494635
6.13	-0.000530046305546053
6.132	-0.000549817854090077
6.134	-0.000477316086507331
6.136	-0.000437244565539161
6.138	-7.96765720083385e-05
6.14	6.0850922329046e-05
6.142	-4.35332263548654e-05
6.144	-0.00010305362099911
6.146	2.00084021600879e-05
6.148	6.53644973744519e-05
6.15	9.55140476192261e-05
6.152	0.00025011649223264
6.154	0.000123347474540478
6.156	5.26951454289114e-05
6.158	6.18741574830668e-05
6.16	9.82017997634974e-05
6.162	7.63173713775469e-05
6.164	-1.54389047213819e-05
6.166	-0.000168425872007544
6.168	2.01503151891727e-05
6.17	-0.000120507833958708
6.172	2.52342484401096e-05
6.174	6.83780967998403e-06
6.176	5.22894781087001e-05
6.178	0.000246718589403302
6.18	0.000215394965376215
6.182	0.000311687577243727
6.184	8.4272741356692e-05
6.186	-4.90205310509369e-05
6.188	0.000277945518738554
6.19	0.000192774288018237
6.192	0.000156726856083946
6.194	-3.12406513706019e-05
6.196	7.31508395697932e-05
6.198	-6.26213764613765e-05
6.2	-1.73080805731283e-05
6.202	-0.000101342596127019
6.204	-0.000109879392300721
6.206	8.96672678145801e-05
6.208	0.000115472985129701
6.21	-0.000157232952593636
6.212	-0.000171844717561643
6.214	-4.96108080664042e-05
6.216	-3.87878754775033e-05
6.218	-0.000291816877066075
6.22	-0.000208571237047029
6.222	-0.000251604455280936
6.224	-7.9276501896076e-05
6.226	-4.09771230615399e-06
6.228	-0.000176942307842856
6.23	8.61514204223536e-06
6.232	-0.000365846645966129
6.234	-0.000735911134587894
6.236	-0.000707096109355196
6.238	-0.000855740350051145
6.24	-0.0007873765001469
6.242	-0.000654851237592804
6.244	-0.00078429963998865
6.246	-0.000497525202178106
6.248	-0.000554651029632769
6.25	-0.000243810514069641
6.252	-0.00010737399977464
6.254	3.87912607991846e-05
6.256	3.77875565410871e-05
6.258	0.000144892251097262
6.26	7.19508925680144e-05
6.262	-5.32371681189098e-06
6.264	9.5188951784387e-05
6.266	0.00022517353136376
6.268	0.000105838520566784
6.27	0.000171476809396036
6.272	0.000280772129158446
6.274	0.000348302003951272
6.276	0.000187041682250697
6.278	0.000124121115380354
6.28	0.00015770409992742
6.282	0.000443080169090348
6.284	7.56238231899861e-05
6.286	0.000310342515370866
6.288	0.000275861875572903
6.29	0.000320977235445367
6.292	0.00016097199015921
6.294	0.00022979037032979
6.296	0.000567875324407485
6.298	0.000246587513970406
6.3	0.000586856494145404
6.302	0.00037576086029484
6.304	0.000341452861301797
6.306	0.000260835393555342
6.308	0.000125035598193156
6.31	0.000221264385282517
6.312	5.0413436104573e-05
6.314	7.87602661801322e-05
6.316	8.69565557506163e-05
6.318	-2.43725484307099e-05
6.32	-9.94755454724109e-05
6.322	2.6611397098627e-06
6.324	-0.000270676241733314
6.326	-0.000260230182115375
6.328	-0.000172557297765235
6.33	-0.00034554787631555
6.332	-9.69908507703749e-05
6.334	-0.000208855555352767
6.336	-0.000183739075997971
6.338	-0.000207833849311313
6.34	6.37099286732728e-05
6.342	-0.000206319020645785
6.344	-0.000139520863855475
6.346	-0.000168970669084343
6.348	-8.97168782480906e-05
6.35	-0.000101819591133264
6.352	-1.9438475782645e-05
6.354	-0.000209630863572542
6.356	-0.000121892156857836
6.358	-0.00027997452416584
6.36	-6.87424070262086e-05
6.362	1.32004521770857e-06
6.364	1.38850683964369e-05
6.366	-2.72779902685679e-05
6.368	0.000316105606908202
6.37	3.06599086023542e-05
6.372	-0.000466674977979371
6.374	-0.000534598895991195
6.376	-0.000728698991751987
6.378	-0.000537404681258509
6.38	-0.00031952182055867
6.382	-0.000110240870278536
6.384	-0.000109304057482973
6.386	-0.000107478763386339
6.388	-0.000146475443013884
6.39	9.41995556050258e-05
6.392	-6.80990450705062e-05
6.394	-0.000191973471939756
6.396	-2.67110433922548e-05
6.398	-0.000281988780142418
6.4	4.52960450568076e-05
6.402	-0.000253206692774249
6.404	3.35358874266724e-05
6.406	-0.000198032690540452
6.408	-3.57272881830114e-05
6.41	-0.00013921650438573
6.412	5.47304455460901e-06
6.414	-9.85928848367132e-05
6.416	-7.48805967263149e-05
6.418	0.000145874269158282
6.42	-0.000128586984472489
6.422	7.53129428340339e-05
6.424	-9.79736179858202e-05
6.426	-6.50816373191927e-05
6.428	0.000108720336654953
6.43	1.5939653891366e-05
6.432	1.74537973704922e-05
6.434	8.62685808157166e-05
6.436	-0.000105397908247684
6.438	-8.23564116692546e-05
6.44	-4.45956225087657e-05
6.442	-7.2770651825803e-05
6.444	-8.30857573058151e-07
6.446	-0.000289698567338637
6.448	-0.000206255115938093
6.45	-0.00023785244827831
6.452	-0.000267547878015834
6.454	-4.54565436845068e-05
6.456	-0.000131883092928354
6.458	-0.000195719975051743
6.46	-8.58149425017366e-05
6.462	-0.000266701961285588
6.464	-0.000228698141983874
6.466	-6.37316816560225e-05
6.468	-0.000281428687588973
6.47	4.98097213825916e-05
6.472	-0.000243427103561063
6.474	-0.000117567174434963
6.476	-0.000182045178437372
6.478	-0.000134715790772648
6.48	-6.89793327004201e-05
6.482	1.0233248082537e-05
6.484	9.39156893123592e-06
6.486	-0.000161382866383848
6.488	-0.000146119716239522
6.49	-6.0405716335121e-05
6.492	0.000138831753819998
6.494	0.000241825462684826
6.496	-1.70516645192792e-05
6.498	-0.000333795584983749
6.5	-0.000650245868497365
6.502	-0.000657012928897018
6.504	-0.00039622603176464
6.506	-0.000342736856396021
6.508	4.94176999137757e-05
6.51	1.56941628042938e-05
6.512	1.52086126775695e-05
6.514	0.000178966291883062
6.516	-8.48012471328154e-05
6.518	-1.10469518288787e-05
6.52	9.07698488778333e-06
6.522	-0.000126733361114438
6.524	-2.99879616092809e-05
6.526	-0.000202121741760464
6.528	2.68994212292598e-05
6.53	0.000148066630765288
6.532	3.43240003827283e-06
6.534	-0.000245869912184992
6.536	0.000161929745859088
6.538	-0.000156576379584699
6.54	-0.000129456511899289
6.542	-7.66218942393138e-05
6.544	-4.58279803046715e-06
6.546	-0.000115842290714849
6.548	0.000351009704658833
6.55	-4.75301949845861e-05
6.552	0.000157046051447034
6.554	0.000141457721783816
6.556	-2.2471291573317e-06
6.558	5.10785014477118e-07
6.56	0.000266009089779691
6.562	0.000140444958143575
6.564	-9.11562623034393e-05
6.566	-3.17317474214872e-05
6.568	-6.11547116230647e-05
6.57	6.52743306948691e-06
6.572	2.10120249299528e-05
6.574	1.33092574301177e-05
6.576	-1.03946493907926e-05
6.578	-8.0862001233975e-05
6.58	7.88116676538895e-05
6.582	-0.000204566134296565
6.584	9.95446390630363e-05
6.586	-4.11810918524611e-05
6.588	3.99095212218748e-05
6.59	-0.000134856913850198
6.592	-0.000192336610777202
6.594	-4.54005217118492e-05
6.596	-4.66501062722453e-05
6.598	-5.04525023214877e-05
6.6	-7.48180820837244e-05
6.602	-1.50606974307089e-05
6.604	-2.34089632397517e-05
6.606	-0.000150291786278006
6.608	-0.000196817781645185
6.61	-6.91679343388014e-06
6.612	-3.66875083979332e-05
6.614	-1.34691651795804e-05
6.616	-0.000245403373520067
6.618	-0.000158306897750587
6.62	-7.02372443322059e-05
6.622	4.36801479985944e-05
6.624	-0.000220843255039162
6.626	-9.81991349890962e-05
6.628	-7.86148843324148e-05
6.63	-8.21212192145768e-05
6.632	-0.000211773723581435
6.634	-0.000196805511947665
6.636	-0.000163695511873769
6.638	-9.42857543287528e-05
6.64	-6.12111779306733e-05
6.642	0.000118936577528512
6.644	-0.000262525284389803
6.646	2.24899761184791e-05
6.648	2.27074609198088e-05
6.65	-8.59108581020707e-05
6.652	-0.000163619933998994
6.654	-0.000106282522232083
6.656	-4.7987170883174e-05
6.658	9.39609180046181e-05
6.66	0.000230863918704007
6.662	0.000373616596009333
6.664	-9.93501660498104e-05
6.666	-0.000415014516774206
6.668	-0.000595342032420343
6.67	-0.000336287094001172
6.672	-0.000382832026202085
6.674	-1.99789891518234e-05
6.676	0.000216443482473729
6.678	-5.78737104479326e-05
6.68	-1.08600690864501e-05
6.682	7.74227205831283e-05
6.684	6.80111382509002e-06
6.686	6.54392840562042e-05
6.688	2.20058216052596e-06
6.69	0.000118812040530183
6.692	-6.15104577936409e-05
6.694	-0.000192802411770131
6.696	0.000105524720165817
6.698	-3.48718530473737e-05
6.7	1.79080990711031e-05
6.702	9.4269098719734e-05
6.704	-0.00016798044899158
6.706	1.72409231733482e-05
6.708	0.000136543358985505
6.71	-0.000141032828911507
6.712	-1.99607495296054e-05
6.714	1.64908898421228e-05
6.716	6.1346246789783e-05
6.718	0.000170618169383557
6.72	-3.15549221679114e-05
6.722	8.83085515650416e-05
6.724	0.000162076465129611
6.726	0.000139923903336206
6.728	9.24360830380909e-05
6.73	0.000107284857799906
6.732	0.000208128951459988
6.734	6.58663395531174e-08
6.736	0.000119701634641736
6.738	0.000101411404566767
6.74	-0.000115100017932475
6.742	-0.000126665611275528
6.744	-4.86454312316632e-05
6.746	-0.000179622051359038
6.748	-0.00027364852753326
6.75	-6.79617997164288e-05
6.752	-4.05280393085612e-05
6.754	-5.49084598931219e-05
6.756	-0.000170304399527367
6.758	-0.000126630545181378
6.76	2.65620224111782e-05
6.762	-3.58935826312169e-05
6.764	-6.95228561626473e-05
6.766	-0.000103936370168971
6.768	-7.15943951488612e-05
6.77	-4.63221706120545e-05
6.772	-1.77783338028771e-05
6.774	-0.000117257225760894
6.776	-0.000153011929077367
6.778	-4.48564932545735e-05
6.78	-3.24544259958738e-05
6.782	-5.10625906785155e-05
6.784	-0.000118677259857582
6.786	-0.000180498246598179
6.788	4.71562425923966e-05
6.79	0.00037356122491336
6.792	0.000216988301631949
6.794	-0.000401395742738818
6.796	-0.000591843314731199
6.798	-0.000505834160091578
6.8	-0.000282657992362675
6.802	-0.000175554563339281
6.804	-9.20246837636644e-05
6.806	-0.000132421380810487
6.808	-2.29632718211627e-05
6.81	2.17456422494381e-05
6.812	0.000100450582783649
6.814	-2.95050298353023e-05
6.816	-8.67269535420474e-05
6.818	5.22060332517488e-05
6.82	-0.000146831297504509
6.822	-0.000105903900181082
6.824	-0.000164399420760034
6.826	3.54020382875624e-06
6.828	4.18310862734991e-05
6.83	-0.000102328988271788
6.832	-6.09484385974229e-06
6.834	9.60146881240536e-05
6.836	4.76125968906828e-05
6.838	4.87949563496684e-06
6.84	4.0382712774938e-05
6.842	2.12649648445511e-05
6.844	-8.40402172828072e-05
6.846	0.000112554430007159
6.848	0.000150953975636299
6.85	0.000101747557001932
6.852	0.00011199067404171
6.854	0.000116538823554849
6.856	0.00011104788714964
6.858	7.33546895430953e-06
6.86	8.06677589690193e-05
6.862	6.45289062554862e-05
6.864	0.000145844156582356
6.866	-0.000188900812610626
6.868	-0.000172376150884085
6.87	3.43947915349854e-05
6.872	6.8433909545596e-05
6.874	-2.17230056231436e-05
6.876	-0.000179195779235188
6.878	-0.00011936253226156
6.88	3.52350535223435e-05
6.882	6.83731096602822e-05
6.884	2.42091519500114e-05
6.886	-0.00021815760313715
6.888	-2.31392566854027e-05
6.89	-0.000272376145013305
6.892	-5.70936365127196e-05
6.894	-9.31368276280359e-05
6.896	-1.71043225731607e-06
6.898	-8.87284237147017e-05
6.9	-0.000177979518618959
6.902	-0.000101509521847816
6.904	-8.81841766598431e-05
6.906	-0.000231145548936982
6.908	-2.77877301104115e-05
6.91	-0.000146389185941806
6.912	7.174439304025e-05
6.914	-4.02565186760395e-06
6.916	-9.09798603698599e-05
6.918	-0.000160196397583504
6.92	-0.000229611883027343
6.922	3.32249789117331e-05
6.924	7.1978069825168e-05
6.926	-3.72686141078745e-05
6.928	-0.000136794270484018
6.93	2.09411933551818e-05
6.932	4.46085579787725e-05
6.934	0.00016628542960671
6.936	0.000405818769752366
6.938	-0.000153778280457218
6.94	-0.000479357937575391
6.942	-0.000670968347120128
6.944	-0.000525078553168049
6.946	-0.000150567600544047
6.948	-0.00012738534742808
6.95	-0.000194557410941251
6.952	5.59366275248857e-05
6.954	5.73651414915228e-05
6.956	5.65068992029756e-05
6.958	9.90692705510281e-05
6.96	-5.65535615486107e-05
6.962	5.54351932040829e-05
6.964	-2.865818252898e-06
6.966	7.41575988576676e-05
6.968	-6.76710434511302e-05
6.97	5.63762155377789e-05
6.972	1.85661266383938e-06
6.974	0.000235856381186886
6.976	2.1547465940587e-05
6.978	8.28346143873163e-05
6.98	8.1650460454368e-05
6.982	-1.83875310321386e-05
6.984	0.000172604507442843
6.986	8.66383044663623e-05
6.988	0.00016676256000834
6.99	-2.10606186080804e-05
6.992	-2.95308814974909e-05
6.994	0.000126660440948727
6.996	0.000146669665961337
6.998	0.000144780164118376
7	0.000182689254003501
7.002	7.78035979943852e-05
7.004	4.33500756960594e-05
7.006	-5.96698591243299e-05
7.008	3.30224364164501e-05
7.01	6.13470190324804e-05
7.012	0.000138255927855344
7.014	-9.91109093530417e-05
7.016	1.11450868272219e-05
7.018	1.751907384423e-05
7.02	4.3893636279347e-05
7.022	-8.40006660807319e-05
7.024	-0.000187864596678911
7.026	-0.000124171492473563
7.028	-0.000157694189743092
7.03	-8.76586740773111e-05
7.032	-0.000256513452214894
7.034	-0.000144047551548674
7.036	-0.00013693003086087
7.038	-6.48965506971026e-07
7.04	2.64400778182894e-05
7.042	-1.56959637046769e-05
7.044	-0.000138609371886111
7.046	-0.000125620073407693
7.048	-0.00023805605946388
7.05	8.82649965066037e-05
7.052	-0.000236082321329657
7.054	4.72611136337923e-05
7.056	-0.000142377651550213
7.058	-1.78955085410609e-05
7.06	-5.26975994835943e-05
7.062	4.8125574130404e-05
7.064	0.000106444779599372
7.066	-6.55649595500058e-05
7.068	9.93378019414834e-05
7.07	-0.000187856370699638
7.072	-0.000179150784571312
7.074	1.8246516182953e-05
7.076	7.23232747792264e-06
7.078	-2.84020122578228e-05
7.08	-0.000225723370178035
7.082	1.53918722953575e-05
7.084	6.19931553406499e-05
7.086	-4.91321433568064e-05
7.088	-1.51680196522631e-05
7.09	-4.3314815207699e-05
7.092	0.000219767260425356
7.094	0.00027689003037065
7.096	-0.000253609986404111
7.098	-0.000461442403203677
7.1	-0.000386060291396433
7.102	-0.000436085590905667
7.104	-0.000235541190389005
7.106	-0.000199805959458463
7.108	-0.000162852372077367
7.11	-3.44172143402653e-05
7.112	7.80383739988525e-05
7.114	-5.62471310796955e-05
7.116	6.91754416298766e-05
7.118	-0.00010567302547227
7.12	-2.94506745998988e-05
7.122	-0.00010059546916204
7.124	4.96293910136246e-05
7.126	6.69119663499199e-05
7.128	-5.37635941639819e-05
7.13	-8.65626733503355e-05
7.132	-0.000298187916775178
7.134	-0.000140488774895672
7.136	0.000108381122088582
7.138	0.000238199751987811
7.14	7.65754668637512e-05
7.142	4.81397137634723e-05
7.144	0.000115496954322613
7.146	-0.000107486267646119
7.148	0.000195791674924738
7.15	0.000115264325603883
7.152	2.44896133509764e-05
7.154	0.000112242615750282
7.156	0.00013419015968121
7.158	0.000127575407805277
7.16	0.000205924673242168
7.162	8.31908414399612e-05
7.164	5.13029287730994e-05
7.166	0.000158241267740135
7.168	-0.000249239706613542
7.17	1.23760408725216e-05
7.172	-0.000188350871013073
7.174	-2.60134194571333e-05
7.176	0.000102867375227797
7.178	-0.000236409292287888
7.18	-4.82735631135636e-05
7.182	-0.000145487357713523
7.184	3.19407302046093e-05
7.186	-2.17279415868969e-05
7.188	-0.00017999645031679
7.19	9.0781708727617e-06
7.192	3.38366833022118e-05
7.194	-0.000143024532747618
7.196	-0.000100039742001341
7.198	0.000111855148167482
7.2	-5.98089874042896e-05
7.202	7.99202004527928e-05
7.204	0.000142745859120587
7.206	8.9716252543169e-05
7.208	0.000138265607783442
7.21	-6.48723325609736e-05
7.212	5.90138726642075e-05
7.214	0.000108695672077777
7.216	7.63837904565312e-05
7.218	0.000139353862120398
7.22	-0.000226420490150899
7.222	2.87867572441383e-05
7.224	-3.49896796186017e-05
7.226	-2.96544149134276e-05
7.228	6.64415482425666e-05
7.23	-6.38448912792913e-05
7.232	5.02088713086844e-06
7.234	-0.000156723723439004
7.236	-4.12705514178931e-05
7.238	-1.56328115397979e-07
7.24	-6.07513591480017e-05
7.242	-0.000101517497964518
7.244	5.40901117067778e-05
7.246	0.000110169367385111
7.248	4.34587178708282e-06
7.25	-0.000162343281155859
7.252	-2.0611218134075e-05
7.254	-2.34763023729068e-05
7.256	-0.000276656690390492
7.258	-4.27656759272498e-05
7.26	9.95395010770573e-05
7.262	0.000159309136701316
7.264	6.3501506731712e-07
7.266	0.000239519760564132
7.268	-1.09972207650031e-05
7.27	-0.00052620904621546
7.272	-0.000477598318928425
7.274	-0.000568145626504493
7.276	-0.00015881454819231
7.278	7.11727993114976e-05
7.28	9.245212841844e-05
7.282	4.86869183834422e-06
7.284	3.09808093612933e-06
7.286	-6.39379920893841e-05
7.288	-4.2997787436888e-05
7.29	6.2222942894351e-05
7.292	5.95704344649246e-06
7.294	1.30730369999292e-05
7.296	9.2711273555184e-05
7.298	6.83485527368663e-05
7.3	3.69037179429534e-05
7.302	0.000120809130507404
7.304	3.5475645140904e-05
7.306	-9.51092552153195e-05
7.308	3.98825400152867e-05
7.31	0.000254873479772876
7.312	5.156691151561e-05
7.314	-2.61833268109321e-05
7.316	0.000137103045026806
7.318	7.05966674359735e-05
7.32	0.000204802812087768
7.322	0.000257772333825417
7.324	0.000128693999173282
7.326	0.00025118111776205
7.328	9.75749548333033e-05
7.33	6.96062211701289e-05
7.332	-4.38805121940166e-05
7.334	2.80887769222187e-05
7.336	0.000201686002046615
7.338	4.7341391433705e-05
7.34	-7.57132666536417e-05
7.342	-9.68213129830305e-05
7.344	-0.000104104747665704
7.346	3.60428058098436e-05
7.348	-6.8834936010397e-05
7.35	-5.58972538689808e-05
7.352	-5.81961317432442e-05
7.354	-8.70600282659446e-05
7.356	-0.000246268763094088
7.358	6.65540961522735e-05
7.36	-0.000240388334475067
7.362	-0.000328276636235025
7.364	-8.55726459126503e-05
7.366	4.15814172839815e-05
7.368	-2.67068225229596e-05
7.37	-4.5599537931851e-05
7.372	-3.43055921372468e-05
7.374	-3.68718750266609e-06
7.376	-2.90798158894885e-06
7.378	3.19129857491314e-05
7.38	-0.000133331504738196
7.382	-0.000147917000307371
7.384	2.08434711752774e-05
7.386	-9.7477327321142e-05
7.388	-0.000143177517914549
7.39	-0.000195030005797069
7.392	-0.000188457099931459
7.394	-0.000125364622423015
7.396	-2.14902899337089e-05
7.398	-0.000199960503070282
7.4	7.28092613663977e-05
7.402	7.42982627028465e-05
7.404	5.41880574620792e-05
7.406	-5.93471096412647e-05
7.408	-0.000104137261644531
7.41	5.4715165063641e-05
7.412	-4.19283636712454e-05
7.414	-1.48704596840557e-05
7.416	6.67015076037706e-05
7.418	-0.000234212032327534
7.42	6.07271628880689e-05
7.422	-0.000118146401268904
7.424	-0.000244032021386726
7.426	-8.78287119048358e-05
7.428	-0.000160887969019353
7.43	-0.000161254164767055
7.432	-0.000164748119199449
7.434	-1.13912312207907e-05
7.436	-0.000147737608143154
7.438	-0.000140130445830582
7.44	-6.03925539759695e-05
7.442	-0.000218117280789701
7.444	1.17852049422527e-05
7.446	-0.000361105249085954
7.448	-0.000121056127459662
7.45	-0.000148462734244559
7.452	-1.50457355747966e-06
7.454	-2.78952391709461e-05
7.456	-1.87242109528062e-05
7.458	-0.000122724057806592
7.46	0.000138410260078584
7.462	-9.8831295036763e-05
7.464	-4.38544839528734e-05
7.466	-0.000111311866707771
7.468	9.88534145122182e-05
7.47	-0.000148788753769289
7.472	-0.00020348249038723
7.474	-9.23014450640012e-05
7.476	0.000149000061109462
7.478	-8.76000354426495e-05
7.48	-0.000143221242174915
7.482	-7.43086884701682e-05
7.484	-4.6756255867752e-05
7.486	-0.000116373323267508
7.488	-3.0420715543201e-05
7.49	-0.000246205003593316
7.492	-0.000240077797585884
7.494	-0.000466155585085548
7.496	-8.26250335663784e-05
7.498	5.38833599076662e-05
7.5	-7.14594691208814e-05
7.502	-7.82627863891357e-05
7.504	2.11537603514662e-06
7.506	-0.000121355561142305
7.508	-0.000133437305957004
7.51	-3.16679509311689e-05
7.512	2.08824206982618e-05
7.514	6.08798850531621e-05
7.516	-0.000154919654425545
7.518	-7.43562435166748e-05
7.52	-0.000250389747303037
7.522	-6.95358569599264e-05
7.524	-9.74753721805311e-05
7.526	6.26590851491096e-05
7.528	0.00023695622063199
7.53	0.000249670704895677
7.532	-0.000123599468217608
7.534	-0.000410494480142924
7.536	-0.000808527672910985
7.538	-0.00047738683648017
7.54	-0.000364709675615911
7.542	-4.1670440502086e-06
7.544	-9.17413464980163e-05
7.546	-8.48589327611262e-05
7.548	-8.82241203826726e-05
7.55	-0.000129054119041409
7.552	-6.68996353166448e-05
7.554	8.45700846428545e-05
7.556	5.03834090127376e-05
7.558	3.11847145575466e-06
7.56	-3.48077786311458e-05
7.562	-0.000321089498181692
7.564	-3.14553180269073e-05
7.566	7.04259680694296e-05
7.568	6.62367497913293e-05
7.57	5.47877875383817e-05
7.572	-7.22145135390936e-05
7.574	1.86172285259633e-05
7.576	-4.16316100222021e-05
7.578	0.00015888339157921
7.58	0.000199512038216818
7.582	0.000146827865967812
7.584	5.09475254898182e-05
7.586	0.000126457991024916
7.588	-2.16920823801939e-05
7.59	0.000216032958171443
7.592	0.00016100721335
7.594	4.04862885551822e-05
7.596	0.000146362029071357
7.598	6.28392093523344e-05
7.6	0.000107137208571422
7.602	-5.9453330174636e-05
7.604	1.76834179870304e-05
7.606	-0.000104714534662673
7.608	-0.000183410783302314
7.61	-0.000125980417433433
7.612	-0.000110424483584042
7.614	2.42957512034618e-05
7.616	-0.000171249079731222
7.618	-1.02474796324751e-05
7.62	-0.000176155848269369
7.622	1.36803620184557e-05
7.624	-8.72467225960551e-05
7.626	-0.000116476517486154
7.628	-0.000216185379533236
7.63	-0.00023063677748559
7.632	-0.0001348163027823
7.634	1.51720331109503e-05
7.636	-0.00010056655444378
7.638	-0.000211871639312805
7.64	-1.91606404637348e-05
7.642	-0.000127910549387868
7.644	-1.62399920244887e-05
7.646	-0.0001487951088834
7.648	-6.61155695434353e-05
7.65	-0.000252916562172264
7.652	-0.000192684224093502
7.654	-3.41623781204919e-05
7.656	-5.11787764573104e-05
7.658	2.83520512728294e-05
7.66	-3.31709081413611e-05
7.662	-6.19324706775557e-05
7.664	5.67888704161534e-06
7.666	1.28486454033483e-05
7.668	4.73092641388394e-05
7.67	8.91929569596339e-05
7.672	-7.14224491344653e-06
7.674	-0.000101870528875169
7.676	-0.000229133117256746
7.678	-0.000165153189296439
7.68	-0.000181630243903887
7.682	-0.000160036224446579
7.684	5.0983300950311e-05
7.686	-0.000202178665530141
7.688	-4.7488356647762e-05
7.69	-0.000266257626703546
7.692	-0.000138013825079603
7.694	-0.000120502556822201
7.696	-0.000170358025617549
7.698	-6.40665900938076e-06
7.7	-0.000151680830302343
7.702	1.70173506782393e-05
7.704	-0.000181158816842467
7.706	-0.000193766192475418
7.708	6.0550598814799e-05
7.71	0.00032972830596166
7.712	0.000355105860051608
7.714	5.23698889600407e-06
7.716	-0.000392842489094576
7.718	-0.000342388717020988
7.72	-0.00030706278662169
7.722	-0.000331886511409829
7.724	-9.69070004077568e-05
7.726	-0.000120484522499805
7.728	-3.41170669833534e-05
7.73	4.862757082248e-05
7.732	3.42717883872676e-06
7.734	-0.000149903230322901
7.736	8.60862963390274e-05
7.738	5.51215940235851e-05
7.74	7.80607033141254e-05
7.742	-1.1279623879786e-05
7.744	7.24576078826857e-05
7.746	9.15179875129481e-06
7.748	2.34979878077411e-05
7.75	-4.03268408636549e-05
7.752	-6.17555880050113e-05
7.754	-0.000160263139761907
7.756	-1.53340341800092e-05
7.758	-5.44399932959845e-05
7.76	-5.25628148210606e-05
7.762	-8.7515193377242e-06
7.764	8.72728102304405e-05
7.766	-8.79496013269923e-05
7.768	8.90835320034874e-05
7.77	5.76872934610061e-05
7.772	-8.37998838575448e-05
7.774	-0.00013734543510399
7.776	0.000215271391337845
7.778	7.1361866040284e-05
7.78	0.000154720873031483
7.782	6.77112243018238e-05
7.784	-5.99623407234027e-05
7.786	5.15528938772219e-05
7.788	2.01471595484225e-05
7.79	-7.4406377679711e-05
7.792	-8.46583222781866e-06
7.794	-8.78775347180968e-05
7.796	-5.56718291437279e-05
7.798	-0.000268571882225843
7.8	-3.64308865500673e-05
7.802	-0.000319098488213583
7.804	-0.000204304338965921
7.806	-8.46311895495969e-05
7.808	-0.000190897271771872
7.81	-8.41737065597481e-05
7.812	-7.36917771734749e-05
7.814	-0.000203750963947235
7.816	-5.12568552393913e-05
7.818	-9.45173414063713e-05
7.82	-0.000107337890772339
7.822	-9.98265414798514e-06
7.824	-0.000120222878910785
7.826	-0.000186196111077393
7.828	-6.94827711715656e-06
7.83	6.49812961697935e-06
7.832	-0.000147307549015914
7.834	8.63942288872821e-05
7.836	-0.000186675587355678
7.838	-0.000175582080673248
7.84	-2.48280047588861e-05
7.842	-0.000311256561848813
7.844	-0.000224000257357619
7.846	-0.000146719576979992
7.848	3.66926022589217e-05
7.85	4.81289856713622e-05
7.852	-0.000198351370283858
7.854	-0.000176735621520919
7.856	-6.70960572752068e-05
7.858	-1.10961177961436e-06
7.86	0.000171094891348304
7.862	-6.63538457707105e-05
7.864	-1.73896635897726e-05
7.866	-0.00015097921829088
7.868	-0.000204299990293089
7.87	-6.68590161711155e-05
7.872	-4.79195247846602e-05
7.874	-0.000190354935079089
7.876	2.58368369907672e-05
7.878	9.31054438663153e-05
7.88	9.13195152242768e-05
7.882	0.000250137437393064
7.884	0.000264568591583427
7.886	-5.38938107177125e-05
7.888	-0.00055804937976932
7.89	-0.00053247652311003
7.892	-0.000569166876038696
7.894	-0.000320329495926002
7.896	-4.62277069891555e-05
7.898	4.33016674439723e-05
7.9	8.11347811833808e-05
7.902	-0.000179150540502791
7.904	-6.24402871694892e-05
7.906	-2.58962996086479e-05
7.908	0.000158151756233779
7.91	1.70472784997875e-05
7.912	-0.000176698133869914
7.914	0.000152806734572483
7.916	3.85201937759374e-05
7.918	-1.13651276680126e-05
7.92	-5.28687769513313e-05
7.922	0.000128572748432541
7.924	-7.48332425922e-05
7.926	0.000246215607427038
7.928	4.49039386108402e-06
7.93	-6.72495919075451e-05
7.932	-8.61503703385252e-05
7.934	2.72562080672797e-05
7.936	7.5267129387277e-05
7.938	4.61529058264804e-05
7.94	3.25684299126388e-05
7.942	0.000165684066405025
7.944	3.66184656623532e-05
7.946	0.00015618288354759
7.948	0.000120618898571312
7.95	0.000214262731730986
7.952	-2.43277903485205e-05
7.954	0.000216915182934361
7.956	-2.13718379842187e-05
7.958	-3.91374072303485e-05
7.96	0.00010794276715812
7.962	0.000166474462212552
7.964	-7.76169626398746e-05
7.966	-3.25936896749847e-05
7.968	-0.000189625012700347
7.97	-0.000242970473185246
7.972	4.67479192561089e-05
7.974	-1.30936869129177e-05
7.976	-9.98292163633605e-05
7.978	-0.00014487576503405
7.98	-0.000209861389952234
7.982	-0.000133378663087863
7.984	7.4893697153531e-05
7.986	-0.000110777917584585
7.988	-2.65732166816649e-05
7.99	-7.08033904462483e-05
7.992	-0.00020917709785012
7.994	-0.000248249832651754
7.996	4.95014432543715e-05
7.998	-4.18540997135693e-05
8	0.000246792268727315
8.002	-4.41899137702334e-05
8.004	4.43295092847496e-05
8.006	-1.33257195574766e-05
8.008	-9.60209797246619e-05
8.01	-0.000118753015458815
8.012	-0.000138477720218455
8.014	6.11158954162344e-05
8.016	-0.000112689326633604
8.018	-0.000160645129256554
8.02	-7.80091678441873e-05
8.022	-0.000104235502625964
8.024	1.16028131897924e-05
8.026	-2.52657388167347e-05
8.028	0.000117453969491173
8.03	-0.000152319707494388
8.032	-0.000681210998797213
8.034	-0.000740696916384726
8.036	-0.000340871824738457
8.038	-0.000118885527692472
8.04	-7.78573151637125e-05
8.042	-0.000127867302686366
8.044	-9.54209890931248e-05
8.046	0.000227743720192143
8.048	-1.62188883134141e-05
8.05	2.0092030612044e-05
8.052	1.08279735548027e-05
8.054	0.000125397423510994
8.056	-6.70761583838423e-05
8.058	-4.31551909471756e-05
8.06	-0.0001314318385962
8.062	-0.000104283776035563
8.064	9.30555476627957e-05
8.066	6.62935510019855e-05
8.068	0.000134668016621845
8.07	6.44466829591526e-06
8.072	0.000102110763583561
8.074	0.000142973745721685
8.076	0.000270666266239485
8.078	6.64401383779668e-05
8.08	5.62715210402047e-05
8.082	8.46037690612895e-05
8.084	9.87500478409218e-05
8.086	7.32508634531034e-05
8.088	0.00029129861530365
8.09	0.000225090616495399
8.092	5.26545387602632e-05
8.094	0.000192734968152657
8.096	0.000215245164096478
8.098	-4.24817294831869e-05
8.1	-7.77686754187986e-05
8.102	-3.33336343967763e-05
8.104	5.25087973156615e-07
8.106	-3.1781537803953e-05
8.108	-7.0612103582929e-05
8.11	-3.41900960219527e-05
8.112	-0.000153824005609763
8.114	-0.000135687939808105
8.116	-2.92654579084561e-06
8.118	-5.4457639154422e-05
8.12	-9.26637151710937e-05
8.122	-0.000238031777693188
8.124	-4.83826444465828e-05
8.126	-3.06471902392996e-05
8.128	-0.000220312225662198
8.13	-9.11381486521661e-05
8.132	-7.29309809415098e-05
8.134	8.93025910143351e-06
8.136	-0.000157663771750526
8.138	-0.000147263141700869
8.14	-0.000165438691090339
8.142	-0.000265863870577668
8.144	-6.35029061736405e-05
8.146	-4.2918792297684e-05
8.148	-0.000164234912732515
8.15	-0.000179902102478067
8.152	-0.00019817748178064
8.154	-9.08008916454661e-05
8.156	4.06405442011184e-05
8.158	-0.000364445305017171
8.16	-0.000295667031017106
8.162	5.86450377439771e-05
8.164	-0.00011375778521053
8.166	-5.08824734709758e-05
8.168	8.87656531362706e-05
8.17	0.000129863596480368
8.172	-3.58648411450608e-05
8.174	1.37781247695327e-05
8.176	-4.01902493418359e-05
8.178	-1.57827428883956e-05
8.18	-0.000103481356492249
8.182	-0.000232152209196835
8.184	-1.6262835877949e-05
8.186	-1.55580743040611e-05
8.188	-0.000127727832018499
8.19	-0.000150211342191602
8.192	-0.000231915152883793
8.194	-0.000136476736554676
8.196	-0.000142885719572918
8.198	-0.000125044108540209
8.2	8.04732068596895e-05
8.202	1.85655735837669e-05
8.204	7.49030804041746e-06
8.206	0.000272857962595556
8.208	0.000163085437693588
8.21	-0.000245631215401946
8.212	-0.000526281401434882
8.214	-0.000497311798637139
8.216	-0.000406891656559409
8.218	-0.000146717548969356
8.22	8.70447247126961e-05
8.222	2.74468623277808e-05
8.224	-0.000138912366529613
8.226	3.07813127264196e-05
8.228	-9.01619910622068e-05
8.23	-5.21392250989585e-06
8.232	-4.75643934771005e-05
8.234	-6.93760103410542e-05
8.236	0.000120474413223774
8.238	-3.21116690677945e-05
8.24	2.5757288883093e-06
8.242	1.01426270663891e-05
8.244	-0.000140941636981442
8.246	0.000134509192841343
8.248	-2.32035400411414e-06
8.25	0.000117149969988222
8.252	7.24573632509471e-05
8.254	0.000161682509225798
8.256	-2.25310462306823e-05
8.258	-0.000108609167014062
8.26	2.19408668402957e-05
8.262	1.93371721135434e-05
8.264	-3.01276970255517e-05
8.266	0.000225313062184084
8.268	0.000225046440594937
8.27	0.000228736601673334
8.272	-4.07565611189703e-05
8.274	-3.22059691235051e-05
8.276	0.000289480035567131
8.278	8.90707665812454e-05
8.28	8.82840381174446e-05
8.282	-3.30634768841301e-05
8.284	-0.000206994445688806
8.286	-6.04380046341339e-05
8.288	-0.000103090119212722
8.29	0.000198374746034321
8.292	-0.000211161730419726
8.294	-0.000141315046157281
8.296	-0.000201980169043922
8.298	0.000104905796062101
8.3	-2.78994772510922e-05
8.302	-0.000222878996358956
8.304	-5.23699357172704e-05
8.306	-0.000219900469533863
8.308	-0.000119035440071018
8.31	0.0002354241656595
8.312	-4.02395066402689e-05
8.314	-0.000177060808338916
8.316	-3.52943553010305e-05
8.318	-0.000135040031490823
8.32	-0.000160937595349088
8.322	-0.000146117982437509
8.324	-5.2918930758716e-05
8.326	5.19590767490033e-06
8.328	-9.33578961255407e-05
8.33	-0.000220346453863444
8.332	-0.000154634588654327
8.334	8.81843480136493e-05
8.336	-0.000143664741611246
8.338	-6.55294870597449e-05
8.34	0.000273690120473631
8.342	0.000114091497500271
8.344	-0.000178915188231517
8.346	-0.000646257072128794
8.348	-0.000702192827583501
8.35	-0.000391236195928725
8.352	-0.000253250364698795
8.354	-6.18857476214924e-05
8.356	1.19247342153759e-06
8.358	-8.70880325857678e-07
8.36	-0.000107179607543846
8.362	-0.000138734372958835
8.364	6.2286851928581e-05
8.366	-4.8763045651863e-05
8.368	0.000176925990022104
8.37	-3.34288997498404e-05
8.372	3.70319034151707e-05
8.374	0.000187520247834098
8.376	-1.78257445746497e-05
8.378	2.92810606954393e-05
8.38	-3.29986388955956e-05
8.382	0.000146290565946653
8.384	1.35980753245553e-05
8.386	0.000118536012324686
8.388	-3.4704551698922e-05
8.39	-0.000154769370947889
8.392	1.50374000732888e-05
8.394	0.000148521408229065
8.396	0.000122785706410419
8.398	3.64911732128351e-05
8.4	6.99133445619012e-05
8.402	-2.66716492427215e-05
8.404	0.00014856111832516
8.406	-9.02080174900059e-06
8.408	0.000104783061250273
8.41	-6.32225985775647e-05
8.412	4.8222767991136e-05
8.414	0.000177348985354436
8.416	-5.6137730160581e-06
8.418	3.50376003239605e-06
8.42	-8.81063753164661e-05
8.422	-0.000211720263867831
8.424	5.34063170110894e-05
8.426	6.93132389756198e-05
8.428	-6.01465820832084e-05
8.43	-5.10803374074925e-05
8.432	-6.22800908488327e-05
8.434	-0.000241093176544631
8.436	-8.24086611937382e-05
8.438	-2.57253943202059e-05
8.44	-0.000219199453210063
8.442	9.08792513693777e-05
8.444	-2.54723975340066e-05
8.446	0.000246862407322638
8.448	-0.000113604074629258
8.45	-0.000619330095086576
8.452	-0.000599401909424867
8.454	-0.000700057704187696
8.456	-0.000317089463839414
8.458	-0.000142945949939885
8.46	-1.09677030355302e-06
8.462	-7.220062873031e-05
8.464	9.79526651979568e-05
8.466	0.000135017269737048
8.468	-6.53218634356136e-06
8.47	-0.000203403772773543
8.472	-6.52234800173386e-06
8.474	0.000130045822611127
8.476	-1.79457918044852e-06
8.478	-6.11862799252625e-05
8.48	-2.87251659280629e-05
8.482	-0.000340771871224545
8.484	-4.11324624215207e-05
8.486	-6.13411325505579e-05
8.488	-5.87673684199925e-05
8.49	-2.47747410978211e-05
8.492	-0.000151950508935368
8.494	-0.000162347837470677
8.496	6.94661343340942e-05
8.498	-5.39806899392457e-05
8.5	-1.68911986531437e-05
8.502	0.000107526571330818
8.504	5.84215781640934e-06
8.506	0.000117115328313407
8.508	7.91233096922927e-05
8.51	2.27077615980815e-05
8.512	3.75000319649814e-05
8.514	-6.39280821280407e-05
8.516	8.79359800855262e-05
8.518	0.000113546960445321
8.52	4.89123676067717e-05
8.522	-1.22845316837295e-07
8.524	-0.000127462625866877
8.526	-0.000242391223839829
8.528	-0.000123553206950985
8.53	4.87360579955474e-05
8.532	-2.1392665009378e-05
8.534	-0.000125660304145662
8.536	-0.000186667066753547
8.538	-0.000194929097289368
8.54	-0.000179913959731969
8.542	-0.000112269244433289
8.544	-0.000131619980462416
8.546	-0.000175384541603697
8.548	-0.000195539940466753
8.55	-9.3052871465105e-05
8.552	-5.8575207766034e-05
8.554	-9.40558021993415e-05
8.556	-0.000262073311417597
8.558	-0.000246773773033409
8.56	-3.77499449535329e-05
8.562	-0.000113467931460519
8.564	-0.000181623064552277
8.566	0.000194886378258903
8.568	6.47718696428779e-05
8.57	2.11105598658842e-05
8.572	-4.07491975035931e-05
8.574	-5.90307953624218e-05
8.576	0.000163731496694093
8.578	-0.000161617160609864
8.58	2.16446879757671e-05
8.582	-1.04583052535742e-05
8.584	-1.68093536376114e-06
8.586	-7.92563736841253e-05
8.588	0.000106986708527223
8.59	7.98918363527588e-05
8.592	-0.000150962669693861
8.594	0.000207196420500172
8.596	0.000281486108639168
8.598	-0.000291180850557878
8.6	-0.00057596264749967
8.602	-0.000480719739741931
8.604	-0.000483841133862687
8.606	-0.000132623427101715
8.608	-0.00022157483285768
8.61	-8.6954426256007e-05
8.612	-5.08367634168455e-05
8.614	2.05906449249881e-05
8.616	1.95498278328538e-05
8.618	8.46517146326659e-05
8.62	4.97766338428682e-05
8.622	1.5420889653716e-05
8.624	7.02016745127007e-05
8.626	0.000157661622957428
8.628	0.00010794656898725
8.63	-0.000146465279486735
8.632	-5.73977878384496e-05
8.634	-0.000145914214460738
8.636	0.000255976593455946
8.638	1.95999178563024e-05
8.64	5.11187374057309e-05
8.642	-0.000119694081454089
8.644	-1.02289257488085e-05
8.646	0.000173976195307509
8.648	-2.62065975118186e-05
8.65	0.000262564011676129
8.652	-6.87832646814296e-05
8.654	-3.80211382551364e-05
8.656	0.000135757955831727
8.658	-7.24705315916565e-05
8.66	-0.000160930025442522
8.662	0.000127403666774869
8.664	-7.01407531967663e-05
8.666	-2.90504730398957e-05
8.668	-5.83148794973365e-05
8.67	9.5076101383292e-05
8.672	-3.34947025606019e-05
8.674	-5.39334591360994e-05
8.676	-4.59859160070522e-05
8.678	-0.000278607148552214
8.68	-0.000123571027398288
8.682	-4.26639064207679e-05
8.684	-7.31637846204827e-05
8.686	-0.000106865196808116
8.688	-2.18791008986767e-05
8.69	-0.000291361425317036
8.692	-0.000267663345171075
8.694	-7.36602030573511e-05
8.696	-0.000239483968859218
8.698	-0.000123925333008857
8.7	-0.00010151934009462
8.702	-0.000100796937831563
8.704	-3.58813562872951e-05
8.706	-6.80603376431973e-05
8.708	8.09938074729403e-06
8.71	-9.216412682166e-05
8.712	1.68090313842126e-05
8.714	-5.93191676644621e-06
8.716	-6.85149189295331e-05
8.718	0.000105359636879729
8.72	-0.000106509733723388
8.722	-4.48328857373979e-05
8.724	-8.42179247835541e-05
8.726	4.08994860449954e-05
8.728	-0.000226079087712922
8.73	-0.000179387733313317
8.732	-0.00010793215715507
8.734	-7.8797525460868e-05
8.736	-7.39983433337658e-05
8.738	-0.000111079764883957
8.74	-0.000138222132110529
8.742	-0.000208316639842248
8.744	-0.00022337615357724
8.746	2.65510525877366e-05
8.748	-0.00027756232206481
8.75	-1.22767250063318e-05
8.752	3.04892670203592e-05
8.754	0.000196351349094321
8.756	0.000156271245443745
8.758	-5.56516063338346e-05
8.76	-0.000532425361057306
8.762	-0.000551555420485573
8.764	-0.000596108745621705
8.766	-0.000126334612036097
8.768	-4.98174413831753e-07
8.77	6.43919502181497e-06
8.772	1.0753271231081e-05
8.774	-0.000101087415737409
8.776	6.06511893872243e-05
8.778	5.93836502246047e-05
8.78	9.64205417130311e-05
8.782	1.63423544406728e-05
8.784	0.000128233702329766
8.786	-1.38684143532875e-05
8.788	-0.000107881501564693
8.79	-5.13946873073642e-05
8.792	0.000187695735107435
8.794	0.000116623884606602
8.796	-8.04667868213053e-05
8.798	2.89560100711109e-05
8.8	9.49641559344691e-05
8.802	4.22954455748879e-05
8.804	0.000233970151957443
8.806	7.02299389494993e-05
