0	0.000116993499576472
0.002	2.77218878458872e-05
0.004	0.000122117467989373
0.006	-0.000176946624552257
0.008	-0.000157103633046921
0.01	2.76300622152467e-05
0.012	-2.58497160019717e-05
0.014	0.000149494147845553
0.016	-8.1823382051352e-05
0.018	-0.000116161718835017
0.02	3.60852669051924e-05
0.022	7.85761127642562e-05
0.024	0.000161586696130803
0.026	6.7537076243626e-05
0.028	-0.000116770743819151
0.03	0.000132892673323882
0.032	-6.60396489737807e-05
0.034	0.000107585649349953
0.036	0.000247957717356266
0.038	-3.19828467285919e-05
0.04	-2.36641730294907e-05
0.042	-3.24857798545451e-05
0.044	1.12482994515574e-05
0.046	0.000220859352792834
0.048	1.48409903579764e-05
0.05	0.000153889120027054
0.052	-8.24378007963651e-05
0.054	8.93171286321995e-06
0.056	0.000148198556325177
0.058	6.9899845493288e-05
0.06	0.000139098729249132
0.062	-2.98385560393298e-05
0.064	-7.07582243240469e-05
0.066	-5.10937436583781e-06
0.068	-0.000144014069635203
0.07	0.000202472672887768
0.072	3.59143152279703e-05
0.074	-0.000157290194548838
0.076	-1.3076297146539e-05
0.078	-0.000130982239424407
0.08	-5.28983203888046e-05
0.082	0.0001362297936186
0.084	-1.8091706437758e-05
0.086	-4.5887242303656e-05
0.088	-0.000219655480750418
0.09	-7.86431285396193e-05
0.092	4.41181079853905e-05
0.094	-7.91321671569183e-05
0.096	-1.53172891847658e-05
0.098	-0.000252584035766211
0.1	-0.000199882141295537
0.102	4.02772966092304e-05
0.104	-0.000128085164940446
0.106	9.50948929181514e-05
0.108	-1.60152115217602e-05
0.11	-4.11206368126444e-05
0.112	-4.52984530865887e-05
0.114	-0.000152389461407866
0.116	8.3980954926427e-05
0.118	0.000228841823294599
0.12	-0.000151588769299485
0.122	-6.80727206382307e-05
0.124	-0.000326852756149441
0.126	-5.08661131577775e-05
0.128	0.000127934037799753
0.13	-7.22558290622647e-05
0.132	0.000108463322635203
0.134	0.000105926340681146
0.136	-1.55362313099418e-05
0.138	-0.000239193007968508
0.14	-0.000568757744337054
0.142	-0.000383561404199736
0.144	-0.000312807495420579
0.146	-0.000385233525577901
0.148	-4.93235213398132e-07
0.15	-5.17883468122035e-05
0.152	8.25187493935575e-05
0.154	-2.64391367578249e-06
0.156	-0.000105714037142334
0.158	3.76139596815374e-05
0.16	-0.000142225423281033
0.162	-1.20343186025688e-05
0.164	0.000162366414980137
0.166	-9.30332876594731e-05
0.168	6.63379436089691e-05
0.17	-0.000142376447162992
0.172	-0.000115692213438007
0.174	8.82592168241622e-05
0.176	3.38028056579651e-05
0.178	0.000155463258213493
0.18	-6.46934335989359e-05
0.182	-7.26313363523658e-05
0.184	0.000126458683488981
0.186	0.00012075303460124
0.188	0.000331305699517347
0.19	-2.88363914415762e-06
0.192	6.6715201030529e-06
0.194	0.000161142745987413
0.196	5.82207499168165e-05
0.198	0.000260231918365795
0.2	0.000223267911723557
0.202	-9.12003547126748e-05
0.204	8.08104221579527e-05
0.206	-7.40949281478168e-05
0.208	2.25861247980041e-06
0.21	7.70527914320569e-05
0.212	1.50573617865203e-05
0.214	-2.50757044598246e-05
0.216	-0.000174630538473689
0.218	-0.000217684235580491
0.22	1.713052822299e-05
0.222	-0.000161424903694991
0.224	0.000120415032692864
0.226	-0.000201235982670078
0.228	-0.000227387651015056
0.23	-3.59288661397677e-05
0.232	-0.000100376817267416
0.234	0.000100724490805145
0.236	-8.51702724399563e-05
0.238	-0.000190097556543271
0.24	-0.000114265705882309
0.242	-0.000103222797688007
0.244	0.000228217517620309
0.246	0.000112973439891256
0.248	-2.52354055136283e-05
0.25	-2.36171478595903e-05
0.252	-0.000203195921123761
0.254	-0.000100240927964579
0.256	7.38820033482183e-05
0.258	-0.000111958156418354
0.26	0.000200214035261361
0.262	0.000155978089127679
0.264	-0.000272199497152977
0.266	-0.000406692668485242
0.268	-0.000618202010332426
0.27	-0.00035032510504329
0.272	-0.000264928995051203
0.274	-0.000209196352699571
0.276	-5.49979167999309e-05
0.278	-8.52755294754576e-05
0.28	0.000133647811237708
0.282	-2.78081508387598e-05
0.284	-0.000234784378348717
0.286	-5.32040987062871e-05
0.288	-0.000149226811695815
0.29	8.3977131384268e-05
0.292	0.000193254439751662
0.294	-3.62764364115322e-05
0.296	0.000105382733603434
0.298	-8.40828867901451e-05
0.3	1.1637488726645e-05
0.302	0.000160600569952723
0.304	-4.26916814639706e-05
0.306	0.000112659862558854
0.308	4.86645070050372e-05
0.31	-4.73528852119267e-05
0.312	0.00014659491899442
0.314	-0.000119471518485297
0.316	0.000258558880320233
0.318	8.27400759187336e-05
0.32	-7.55088808193804e-05
0.322	-1.29185617174321e-05
0.324	2.12935809125587e-05
0.326	0.000173007177723379
0.328	0.000207821417941511
0.33	-0.000248261545683452
0.332	7.98026262988404e-05
0.334	-0.000163752925828877
0.336	4.39658828450234e-05
0.338	0.00010286628373717
0.34	-0.000123216176878488
0.342	7.433454359612e-05
0.344	-0.000219983598399462
0.346	-0.000103263672245634
0.348	8.54097642591656e-05
0.35	-8.79790888180712e-05
0.352	0.000126622885733217
0.354	-2.50786518030165e-06
0.356	-0.000285001041042257
0.358	-1.89526525095742e-05
0.36	-0.000135466007799815
0.362	0.000113217542333404
0.364	-7.85447788940652e-05
0.366	-0.000186738997812995
0.368	-4.55652923004909e-05
0.37	-0.00030490624650233
0.372	-8.04261653275534e-05
0.374	5.65734482714695e-05
0.376	-0.000182259708639309
0.378	-4.36340749286332e-05
0.38	-0.000267295413615181
0.382	-0.000103103063164598
0.384	8.72884002796094e-05
0.386	-0.00014119912881779
0.388	5.1148057379122e-05
0.39	-0.000252196861468863
0.392	-0.000208518563690584
0.394	3.11384740548674e-05
0.396	-0.000115777722521137
0.398	0.000129929096336076
0.4	-5.56817175955741e-05
0.402	-0.000256108188092826
0.404	7.73295346111553e-05
0.406	-7.24565299448712e-05
0.408	3.45830850143491e-06
0.41	-5.84162355701802e-05
0.412	-0.000144123778312265
0.414	-5.24946478323465e-05
0.416	-0.000229114454217005
0.418	-1.10276263630839e-05
0.42	0.00013164005295814
0.422	-0.000136824300850182
0.424	0.000101958064009208
0.426	8.05558430213618e-05
0.428	-0.000134235548110379
0.43	-0.000377036317036708
0.432	-0.000596473376118853
0.434	-0.000398708383763736
0.436	-0.000359874217250556
0.438	-0.000133023296312972
0.44	4.43863690408608e-05
0.442	8.55361122752643e-05
0.444	0.000149156201353498
0.446	-4.95970990979227e-05
0.448	-0.000140291980818121
0.45	-1.07311868029045e-05
0.452	-6.57081516456775e-05
0.454	7.87730847510832e-05
0.456	9.62124889890069e-05
0.458	-0.000146380094733063
0.46	-1.69529159003795e-05
0.462	-0.000138451848093142
0.464	5.14726697573609e-05
0.466	0.000120603585578726
0.468	-2.66539034219769e-05
0.47	3.10362607419433e-05
0.472	-9.4930904173505e-05
0.474	-0.000103462911028684
0.476	0.000200336182018967
0.478	1.56510574662171e-05
0.48	0.00021541783252907
0.482	9.25659375070651e-06
0.484	7.96974749311371e-06
0.486	7.3389812611363e-05
0.488	7.27480685420423e-05
0.49	0.000237085689744856
0.492	0.000229773675402694
0.494	-2.93146616993747e-05
0.496	0.000172246000845367
0.498	-1.04145619266053e-05
0.5	0.000165123082516438
0.502	0.000154427165891083
0.504	-5.73818635167281e-05
0.506	-8.82862571836596e-05
0.508	-0.000186600734350889
0.51	-0.000141879154995884
0.512	7.55498582822872e-05
0.514	-6.57076531780347e-05
0.516	2.7217612131599e-05
0.518	-0.000257438166708593
0.52	-0.00026133961824029
0.522	0.000101266396174782
0.524	-0.000143002671371777
0.526	9.97807384555558e-05
0.528	-0.000233489666440821
0.53	-0.000244561687431595
0.532	-4.35653487464359e-05
0.534	-4.12273742659462e-05
0.536	9.35257738617808e-05
0.538	-7.82578017791873e-06
0.54	-0.000228491868199339
0.542	7.58412158550556e-05
0.544	-0.000168350970404458
0.546	4.3786672211141e-05
0.548	6.80574632252652e-05
0.55	-7.28313368335138e-05
0.552	4.63094755026771e-06
0.554	-0.000257078627620012
0.556	-8.39821019646357e-05
0.558	2.19241144376589e-05
0.56	-0.000129268011939243
0.562	6.49212442800304e-05
0.564	-0.000183584178642465
0.566	-0.000173022976721895
0.568	-1.51926199449995e-05
0.57	-9.73666243717417e-05
0.572	8.81994766913287e-05
0.574	-6.69106016868848e-05
0.576	-0.000204305062036369
0.578	-4.25553760780915e-05
0.58	-9.08541114897611e-05
0.582	8.96483806255578e-05
0.584	8.17647603267821e-05
0.586	-0.000148229382020495
0.588	-3.2705519176144e-05
0.59	-0.000217740261043125
0.592	8.09033348862758e-05
0.594	9.77162738017748e-05
0.596	6.44476000035547e-05
0.598	0.000137387405823692
0.6	0.000110308291606621
0.602	-6.10189866963575e-06
0.604	-0.000289411488343599
0.606	-0.000584515424269529
0.608	-0.00035408087002134
0.61	-0.00044823120688902
0.612	-0.000436831734659785
0.614	1.26990421731007e-05
0.616	-0.000141972805032559
0.618	0.000205092431159856
0.62	3.57380634749863e-05
0.622	-0.000215343768813671
0.624	1.18033367718978e-05
0.626	-0.000184679865520328
0.628	1.96014799913313e-05
0.63	8.19927817652348e-05
0.632	-9.47268168015241e-05
0.634	-7.85368638308564e-05
0.636	-0.000275878080415036
0.638	-6.28910464377763e-05
0.64	0.000132049877455122
0.642	-3.98071917870684e-05
0.644	5.03982549861146e-05
0.646	-6.81068543080977e-05
0.648	2.0821268543136e-05
0.65	0.000215233095093526
0.652	3.08480644715017e-05
0.654	0.000267009619793768
0.656	2.23789385501498e-05
0.658	-9.5903367136701e-05
0.66	0.000143459954097115
0.662	7.83698239627245e-05
0.664	0.000152616707381228
0.666	0.000184010933268226
0.668	-0.000176685263459859
0.67	-4.79673977828233e-05
0.672	-6.97163748268161e-05
0.674	0.000161178216304362
0.676	0.000125847407169433
0.678	-0.000155605476431387
0.68	5.54145703035994e-05
0.682	-0.000320677241079798
0.684	-0.000175208796110561
0.686	0.000107149546707934
0.688	-7.84755994707744e-05
0.69	6.97633987014148e-05
0.692	-0.000292000448282992
0.694	-0.000108622925589165
0.696	6.05189130161691e-05
0.698	-5.38405967272175e-05
0.7	7.41566303912837e-05
0.702	2.4918964292795e-05
0.704	-0.00023829555543138
0.706	-6.44808793167201e-05
0.708	-0.000123531413976869
0.71	3.63530262986256e-05
0.712	9.12395031159592e-05
0.714	-0.000166297659987559
0.716	-7.40724452726362e-05
0.718	-0.000277082608892878
0.72	-1.02152367260849e-05
0.722	9.89114930719729e-05
0.724	-0.000173628356806608
0.726	-3.99861752314983e-05
0.728	-0.00017739017688627
0.73	-0.000163095334545671
0.732	0.0001024600673319
0.734	-0.000128772467018908
0.736	1.39799325332186e-05
0.738	-0.000193297647169408
0.74	-0.000175826358252758
0.742	8.66243298994452e-05
0.744	-0.000151534696732272
0.746	0.00010783277406783
0.748	8.13466186358868e-05
0.75	-0.000201290456092073
0.752	-2.67499701647384e-05
0.754	-9.93363617718375e-05
0.756	1.52122628231451e-05
0.758	0.000164654225240347
0.76	1.7559343461377e-05
0.762	-9.45138526072215e-05
0.764	-0.000274860444440122
0.766	-9.9407722095987e-05
0.768	8.72974179290951e-05
0.77	-0.000146473588806517
0.772	0.00010384338178811
0.774	5.87111818708851e-05
0.776	-7.77091470802994e-05
0.778	-0.000160729836814129
0.78	-0.000401103673032751
0.782	-0.000393437407041089
0.784	-0.000410399802814274
0.786	-0.000230691441584496
0.788	8.61376183603945e-06
0.79	-3.31673981840972e-06
0.792	9.51362272119934e-05
0.794	7.22952022822442e-05
0.796	-0.000164641164560128
0.798	-5.02560052782054e-05
0.8	-0.000152382994357974
0.802	6.12963122862323e-05
0.804	0.00021791762242218
0.806	4.97982657982157e-06
0.808	3.48413841906444e-05
0.81	-9.51566748195492e-05
0.812	-9.48527519830284e-07
0.814	0.000176793134797745
0.816	-4.53679836805938e-05
0.818	0.000103276281865236
0.82	-0.000123281360165451
0.822	-6.88938023189456e-05
0.824	0.000129626589727155
0.826	-8.23576586752892e-05
0.828	0.000166631399536058
0.83	7.60078255332207e-05
0.832	-0.000155112713022804
0.834	7.61725713033975e-06
0.836	-2.77986611987616e-05
0.838	0.000207504091393145
0.84	0.000155878528935588
0.842	-1.6765009265767e-05
0.844	2.10297765494871e-05
0.846	-0.000216207697470387
0.848	5.98872743742465e-05
0.85	0.000192626157147144
0.852	-6.49374427723869e-05
0.854	0.000153738260822262
0.856	-0.000206067701512187
0.858	-0.000216439391214865
0.86	0.000103450337963665
0.862	-0.00015692172343546
0.864	0.000128939126080133
0.866	-0.000123673350395494
0.868	-0.000286314010100501
0.87	4.93222346311835e-06
0.872	-9.78060238934239e-05
0.874	3.00224960798428e-05
0.876	-8.61437094560914e-06
0.878	-0.000165552985915989
0.88	-4.58018494834093e-05
0.882	-0.00024949475096839
0.884	4.53536941764315e-05
0.886	0.000165456880771967
0.888	-0.00012328181739354
0.89	-6.54426892460214e-05
0.892	-0.00019473928981799
0.894	-3.26059701907531e-05
0.896	8.49104022170483e-05
0.898	-0.000121359853459379
0.9	2.22475628092342e-06
0.902	-0.000117609138204326
0.904	-0.000137223865442802
0.906	-7.94199621641942e-06
0.908	3.06122844804259e-05
0.91	9.63920609161876e-05
0.912	-5.8272916522498e-05
0.914	-6.01853497237756e-05
0.916	-7.90402375508584e-05
0.918	-0.000137329196071726
0.92	0.000246407968093988
0.922	0.000175347215065516
0.924	1.68223907003281e-05
0.926	1.40968123760128e-05
0.928	-0.000558082196540414
0.93	-0.000447429653052551
0.932	-0.000243859823958503
0.934	-0.000357739636194331
0.936	4.98117366910676e-06
0.938	-0.000221027851633983
0.94	-1.88240128861561e-05
0.942	0.000185796524199942
0.944	9.72474718916364e-06
0.946	8.59255612886756e-05
0.948	-7.76449155093321e-05
0.95	-0.000174057168473843
0.952	7.03710283275107e-05
0.954	-3.65906737155269e-05
0.956	0.000268927881461676
0.958	-5.65693968203839e-06
0.96	-0.000178016549914107
0.962	-4.7897341888768e-05
0.964	1.39793436822152e-05
0.966	0.000172384247780581
0.968	0.000252602553326241
0.97	-1.89532231796946e-05
0.972	0.000104490386050863
0.974	-5.99164392837465e-05
0.976	4.90842162420265e-05
0.978	0.000276769286968873
0.98	0.000209010121886993
0.982	0.000252068745745478
0.984	-0.000130027547776196
0.986	3.67035011100359e-05
0.988	0.00023816549320835
0.99	8.98362384809518e-05
0.992	0.00014238022036864
0.994	-0.000102720993353038
0.996	-0.000185500490919457
0.998	3.64465315025304e-06
1	-7.65812210389941e-05
1.002	9.79849104461129e-05
1.004	6.61959570195776e-05
1.006	-0.000257594082077224
1.008	-6.12910654684973e-05
1.01	-0.00032655594118172
1.012	-8.90619256962607e-06
1.014	0.000140509889078983
1.016	-0.000170402890531036
1.018	-5.08707793822638e-05
1.02	-0.000187333899595484
1.022	-6.13697191905627e-05
1.024	0.000153199881226064
1.026	-3.49353565508182e-05
1.028	-1.74996181368654e-05
1.03	-0.0001635380366791
1.032	-9.91621793874609e-05
1.034	9.41770684810001e-05
1.036	-0.00011907650530408
1.038	0.00011475478127666
1.04	2.59881577460151e-05
1.042	-0.000239560735816024
1.044	3.23586475802406e-05
1.046	-8.20135951135005e-05
1.048	0.000159560585640841
1.05	9.63464088763017e-05
1.052	-0.000258915634617773
1.054	-5.82825206665298e-05
1.056	-0.000224555369286666
1.058	2.3077900539259e-05
1.06	0.000166752464492793
1.062	-0.000156960386266554
1.064	1.36724972747022e-05
1.066	-1.44804497287237e-05
1.068	9.61483120546435e-05
1.07	-0.000273215886131469
1.072	-0.000541093401754362
1.074	-0.00044070486970603
1.076	-0.000410373689816561
1.078	-0.000242090528507437
1.08	8.33369787235737e-05
1.082	1.32436122457755e-05
1.084	0.000235716336789585
1.086	-3.81333339676983e-05
1.088	-0.000132610785599125
1.09	4.90913071805206e-05
1.092	-3.88773812376507e-05
1.094	0.000114186666752256
1.096	0.000108397651304055
1.098	-4.18547097043957e-05
1.1	8.78196015947772e-06
1.102	-0.000184332943087026
1.104	9.85893744084745e-05
1.106	0.000110604654943722
1.108	5.66321491374533e-05
1.11	1.56613061908695e-05
1.112	-0.000157653558067663
1.114	-1.20891270495988e-05
1.116	0.000112714621486407
1.118	8.40596662910422e-05
1.12	0.000210079903333321
1.122	-3.85584600485102e-05
1.124	-6.67426557060163e-05
1.126	6.34439940203004e-05
1.128	1.74843102474684e-05
1.13	0.000184815856914141
1.132	0.000119181031228805
1.134	-8.00444195075151e-05
1.136	0.000112830551190746
1.138	2.38136712938409e-05
1.14	0.000126646607717687
1.142	0.00021257885181527
1.144	-0.000122814060044168
1.146	-8.72105713254558e-05
1.148	-0.000153897857452097
1.15	-8.70898470535272e-06
1.152	0.000256455690942005
1.154	1.2541919467153e-05
1.156	-1.25395194600843e-05
1.158	-0.000239420560560373
1.16	-0.000269807196011689
1.162	0.000143070854443752
1.164	-0.000100382752741013
1.166	6.9024662533559e-05
1.168	-8.94404973223251e-05
1.17	-0.000165841829643767
1.172	0.000209676899563154
1.174	3.64165780827843e-05
1.176	-0.000317497047914504
1.178	-0.000629848283050848
1.18	-0.000768540006842785
1.182	-0.000303286644376779
1.184	-0.000134638640637713
1.186	0.000130166816435508
1.188	0.000201839747328429
1.19	-6.75666010202458e-05
1.192	1.11418587947404e-05
1.194	-0.000221908378467718
1.196	1.58388792071729e-05
1.198	0.000224344653899828
1.2	-4.69505138994727e-05
1.202	9.58070734148252e-05
1.204	-0.000106271499101917
1.206	-0.000141780531616219
1.208	8.45449188821055e-05
1.21	1.60907115372926e-05
1.212	0.000143806524537203
1.214	7.39193503731596e-05
1.216	-0.000157639865440622
1.218	-1.29989482652121e-05
1.22	-0.000108337378005921
1.222	0.000188332123092805
1.224	0.000207682523946926
1.226	-7.93843220385163e-05
1.228	7.8721571800892e-05
1.23	-0.000178852454356239
1.232	0.000199225860453427
1.234	0.000242926922765108
1.236	2.29853298742314e-05
1.238	0.000222094303159031
1.24	-0.000105478433694924
1.242	-1.20306788745541e-05
1.244	0.000139467316005629
1.246	7.26974319954213e-05
1.248	7.87414337659981e-05
1.25	4.82009495427314e-05
1.252	-0.000154075288821482
1.254	-3.22346350420165e-05
1.256	-0.00017459759926717
1.258	0.000199116945155083
1.26	7.48993998981066e-06
1.262	-0.000246092456484487
1.264	-0.000176868943041852
1.266	-0.000185698906942533
1.268	8.36241623148681e-05
1.27	0.000142728919573352
1.272	-0.000175441777837759
1.274	-8.5975618210034e-05
1.276	-0.000254898494907191
1.278	-4.12580240901271e-05
1.28	7.08990006105308e-05
1.282	-6.7580523593497e-05
1.284	-6.89442314696456e-07
1.286	-0.000251376953301413
1.288	-0.000140347305712896
1.29	6.79171959535851e-06
1.292	-0.000161552158576166
1.294	0.000134542647334308
1.296	-0.000188727575307673
1.298	-0.00019419177464053
1.3	-6.9750030664354e-06
1.302	-9.96253739422323e-05
1.304	0.000108016325482812
1.306	2.9923747504641e-06
1.308	-0.000292627829966178
1.31	-5.85025749866639e-05
1.312	-0.000237673612686916
1.314	3.5078505707364e-05
1.316	0.000193130997872105
1.318	-0.00011368781970429
1.32	-2.39425476833995e-05
1.322	-0.000267235944623114
1.324	-3.88604055503057e-05
1.326	-1.61272982838868e-05
1.328	-8.76757743765959e-05
1.33	3.72157256533939e-05
1.332	-0.000176149696083488
1.334	-0.000238474937205605
1.336	5.52897126893935e-05
1.338	-7.14581423030203e-05
1.34	0.000167100374079746
1.342	3.67989598622012e-05
1.344	-0.000269540266802982
1.346	-7.83933967222354e-05
1.348	-0.00011304934664432
1.35	0.000133614388005468
1.352	4.9825005268363e-05
1.354	-9.02385776859428e-05
1.356	-9.30589798598991e-05
1.358	-0.000218232542481755
1.36	1.40083982654647e-05
1.362	0.000134313289259313
1.364	4.10323087732957e-06
1.366	0.000280163815820153
1.368	0.000104063704179792
1.37	-0.000193078264949703
1.372	-0.000404367016712365
1.374	-0.000608958968093314
1.376	-0.000419362389802235
1.378	-0.000349763402330861
1.38	-0.000296627817844677
1.382	3.13847593735849e-05
1.384	-3.371340362553e-05
1.386	0.000207089106534477
1.388	-0.000117171738088855
1.39	-0.000152841064654884
1.392	-2.92101326274441e-05
1.394	-0.000180132450697817
1.396	0.00014528893082989
1.398	0.000201174306379139
1.4	-4.8760969152204e-05
1.402	2.98287302361697e-05
1.404	-0.000159302865536726
1.406	4.60435651215386e-05
1.408	0.000214721326879316
1.41	9.89987952023422e-05
1.412	0.000155026165185043
1.414	-0.000116617131940035
1.416	-5.730940193121e-05
1.418	0.000126893247402163
1.42	2.84772722725493e-06
1.422	0.000198236161703118
1.424	0.000130972563294528
1.426	-4.63293232293841e-05
1.428	3.21794222775993e-06
1.43	-2.91607281572396e-05
1.432	0.000228280139409599
1.434	0.000165214706778084
1.436	-8.53990107936291e-05
1.438	7.27033836973169e-05
1.44	-0.000178840559152241
1.442	0.000125806984249033
1.444	2.68662685794671e-05
1.446	-0.000170427243373545
1.448	-1.61512648068142e-05
1.45	-0.000229044496299264
1.452	-2.42158675738307e-05
1.454	9.38938799398541e-05
1.456	-6.0033037041447e-05
1.458	1.75469992721865e-05
1.46	-0.000119600282701596
1.462	-0.000101831233373696
1.464	8.00219086361833e-05
1.466	-4.3225075614386e-05
1.468	0.000165722571481227
1.47	-5.27505694675715e-05
1.472	-0.000251410367079117
1.474	-9.55393252379468e-06
1.476	-0.00019106637880351
1.478	3.42363265839063e-05
1.48	0.000213826425616317
1.482	-3.4457297644583e-05
1.484	-0.000191805354738625
1.486	-0.000805079487830944
1.488	-0.000698752406848361
1.49	-0.000362520783287859
1.492	-0.000321270016290473
1.494	4.18251465249086e-06
1.496	-0.000225685272676645
1.498	-0.000156465842769681
1.5	0.00014106597477697
1.502	-8.6990888433515e-05
1.504	3.80129464143181e-05
1.506	-7.08490876231902e-05
1.508	-8.2709054816027e-05
1.51	0.000110983851682244
1.512	-3.04109122015339e-05
1.514	0.000165993121150909
1.516	9.07055534423757e-05
1.518	-0.000108547872436965
1.52	4.62921172434264e-05
1.522	-6.61831223820969e-05
1.524	5.09670206835626e-05
1.526	0.000122129070847908
1.528	-9.75497993947045e-05
1.53	5.8054700008755e-05
1.532	-0.000114526594086847
1.534	0.000137440952055831
1.536	0.000205617306875095
1.538	4.72595654992702e-05
1.54	0.000210775192570666
1.542	-9.22677030941544e-05
1.544	5.17860348503447e-05
1.546	0.000127720068730315
1.548	0.000107942202321349
1.55	0.000240106974173171
1.552	-2.79544337446546e-05
1.554	-0.000171671460165391
1.556	8.43895147484934e-05
1.558	-3.01551405779217e-05
1.56	0.000102868214132311
1.562	3.67770245816586e-06
1.564	-0.000114996702026775
1.566	0.000145483243330913
1.568	-0.000482826467673287
1.57	-0.000602042115758884
1.572	-0.000649574419493735
1.574	-0.00051126117124192
1.576	-6.82450121550442e-05
1.578	-0.000116568969811944
1.58	4.70461898448965e-07
1.582	0.000172697614919753
1.584	-5.93213249560819e-05
1.586	0.000115856028830955
1.588	-0.000194857771197878
1.59	-0.0001207267043138
1.592	-1.48117172455938e-06
1.594	-5.60872876354827e-05
1.596	1.14518040931997e-05
1.598	2.31967396968484e-05
1.6	-0.000219685135665068
1.602	0.000116917717460471
1.604	-7.68868068276087e-05
1.606	4.51605646324361e-05
1.608	0.00016332117432401
1.61	-3.58426376042424e-05
1.612	2.81362364165567e-05
1.614	8.73154129341536e-06
1.616	0.000124061902162409
1.618	0.000194481267873017
1.62	-2.1464076274569e-05
1.622	0.000135302483120846
1.624	-5.11918875068135e-05
1.626	-1.7944098681464e-05
1.628	0.000280753149926678
1.63	0.00010608178913968
1.632	0.000179917811440909
1.634	4.94202462905304e-05
1.636	-0.000102243918370913
1.638	1.63360328380956e-05
1.64	-0.000110788189198974
1.642	0.000139169234317189
1.644	-2.93328969118552e-05
1.646	-0.000263840093565322
1.648	-0.000130029691423449
1.65	-0.00016814325098737
1.652	3.08941599522448e-05
1.654	8.75733006632587e-05
1.656	-0.000236902982332758
1.658	-8.30884148916775e-05
1.66	-0.000267056331615876
1.662	-3.51533755492477e-05
1.664	0.000114407930252835
1.666	-8.33216546064047e-05
1.668	4.7237098578056e-05
1.67	-0.000195557997487121
1.672	-8.8939089638628e-05
1.674	0.000194059028917558
1.676	0.000117457806782738
1.678	0.000431216305637769
1.68	-5.85418695752402e-05
1.682	-0.000457718729733208
1.684	-0.000258418226010251
1.686	-0.000540531442910743
1.688	-6.97271844404661e-05
1.69	-7.84756234999444e-05
1.692	-0.000174663086752827
1.694	-5.31415060191649e-05
1.696	-0.000216337492362927
1.698	0.000108368046713602
1.7	0.000152001657551896
1.702	-0.000161307369094536
1.704	3.61495618476037e-06
1.706	-0.0001947020417153
1.708	-6.56661591486732e-05
1.71	7.69251826100414e-05
1.712	-9.11353900876093e-05
1.714	0.000114988959162489
1.716	-0.000109804160771505
1.718	-0.000272558082241663
1.72	1.71883197022533e-05
1.722	9.70907391824872e-05
1.724	0.000158477008454182
1.726	-5.45657237463533e-07
1.728	-0.000179113953236452
1.73	-1.03966062830799e-05
1.732	-9.99312554528784e-05
1.734	5.53024704630654e-05
1.736	0.000139783539264736
1.738	-1.6417601461739e-05
1.74	6.79389363818055e-06
1.742	-0.000162132640058483
1.744	7.91733573054401e-05
1.746	8.00624277929383e-05
1.748	2.48926673205435e-05
1.75	4.44828849072169e-05
1.752	-0.000177639767468786
1.754	-9.87448007577033e-05
1.756	0.000106108425405965
1.758	-6.271675852349e-05
1.76	1.14115882470558e-05
1.762	-0.000124047589807024
1.764	-0.000179340291761038
1.766	8.89702809487888e-05
1.768	-0.000146917605207031
1.77	0.000121473227617682
1.772	-6.31987053515166e-05
1.774	-0.000277474531177554
1.776	-0.000125618125129429
1.778	-0.000141448977625911
1.78	0.000108981613918021
1.782	7.40818931549353e-05
1.784	-5.71100209964964e-05
1.786	2.55026541434952e-06
1.788	-0.00016895563713176
1.79	0.000205634555005747
1.792	7.51804602688902e-05
1.794	-0.000509546404528136
1.796	-0.000519050688913067
1.798	-0.000572818518879139
1.8	-0.000344215878915152
1.802	2.69660091718445e-06
1.804	-6.16245018569754e-05
1.806	0.000197313854460229
1.808	-9.25680365687085e-05
1.81	-0.00021252041353208
1.812	-1.26588801885628e-05
1.814	-6.70209061756369e-05
1.816	0.00018051419886609
1.818	-6.24076250320032e-05
1.82	-0.000132633902567801
1.822	-3.98063716761554e-05
1.824	-0.000173414486262539
1.826	7.11834880071118e-05
1.828	0.000165544601289426
1.83	4.27429610462129e-05
1.832	-3.68372473018351e-05
1.834	-8.72822465601463e-05
1.836	-7.30507311803886e-05
1.838	0.000102841762399083
1.84	-6.48264947928536e-05
1.842	0.0001830263307606
1.844	-3.57991089453515e-05
1.846	-0.000115332076511826
1.848	7.53693660643838e-05
1.85	4.85867529531597e-05
1.852	0.000269034405909933
1.854	0.000167796914690588
1.856	-0.000134546958696025
1.858	1.63414386012825e-05
1.86	-7.93306788996073e-05
1.862	0.000208617376666232
1.864	5.57195629979542e-05
1.866	-0.000126043612052554
1.868	6.16700276680468e-05
1.87	-0.00018733388845131
1.872	-1.25086710221771e-05
1.874	0.000181343790858172
1.876	-5.51242405638917e-05
1.878	-7.94208865035781e-05
1.88	-0.000243933297882307
1.882	-0.000106224218793205
1.884	8.05256132258738e-05
1.886	-3.71171196447926e-05
1.888	1.53715152661754e-05
1.89	-0.00023012034624814
1.892	-0.000275086297923438
1.894	-3.27986010320293e-05
1.896	-0.000134732674775408
1.898	7.2408283744391e-05
1.9	-9.37243953470583e-05
1.902	-0.000203008279915587
1.904	-4.04555934265417e-05
1.906	-0.000151788882934288
1.908	6.03388015860263e-05
1.91	8.13451678910703e-05
1.912	-0.000190594651361734
1.914	-5.18540237359115e-05
1.916	-0.000259461458141765
1.918	2.59836964302328e-05
1.92	0.000160664988794671
1.922	-3.11209573023766e-05
1.924	-3.36485263048722e-05
1.926	-0.00021956369874429
1.928	-0.000221312637938825
1.93	2.90850078847302e-05
1.932	2.10959788805132e-05
1.934	0.000132558064621233
1.936	-0.000132052617280093
1.938	-0.000306421856682651
1.94	-8.89975281722369e-05
1.942	-0.000255902902768639
1.944	8.50370330448267e-05
1.946	-4.22532259076648e-06
1.948	-0.000195795871064389
1.95	-8.18611205778239e-05
1.952	-0.000203604129855721
1.954	0.000140993276508538
1.956	0.000251104918849617
1.958	0.000139017903660532
1.96	0.00014053252821075
1.962	-0.000447536485149125
1.964	-0.000453623156164262
1.966	-0.000362347549390143
1.968	-0.000306744940462588
1.97	-9.31481986432809e-05
1.972	-0.00025328476561091
1.974	-1.3975370368073e-05
1.976	-3.91009353372688e-06
1.978	8.42878949878576e-08
1.98	0.000110350056768145
1.982	-1.44646138706588e-05
1.984	-0.00026677123314643
1.986	5.29502513531793e-05
1.988	-0.000121137500349581
1.99	0.000108555322556036
1.992	9.8579002159721e-05
1.994	-0.000162073441736184
1.996	-2.12113124326644e-06
1.998	-0.000122678926364385
2	2.3474607574498e-05
2.002	0.000147658314104252
2.004	6.7565018048459e-05
2.006	0.000142747458337078
2.008	-0.0001954402389379
2.01	-2.94880553208794e-05
2.012	0.000193172563669339
2.014	0.0001212401246231
2.016	0.000241867919014562
2.018	2.47154527729215e-05
2.02	-5.54659232581486e-05
2.022	0.000130231765346086
2.024	0.000129992670172875
2.026	0.000245889369458513
2.028	7.54180031339636e-05
2.03	-0.000106442090018701
2.032	0.000193090642170066
2.034	-2.10574794023264e-05
2.036	6.28949945241197e-05
2.038	9.96646523160495e-05
2.04	-0.00011708076678156
2.042	4.12997726400491e-05
2.044	-0.000232215609728771
2.046	-1.87055559802213e-05
2.048	0.000106328170397048
2.05	-3.72964277332445e-05
2.052	1.99593706694755e-05
2.054	-0.000148588954279863
2.056	-0.00016403959762059
2.058	6.85866416679192e-05
2.06	-5.90159674202972e-05
2.062	5.84643042618576e-05
2.064	-9.1991434095322e-05
2.066	-0.00016572621849054
2.068	2.56484251722017e-06
2.07	-0.000102984544203836
2.072	0.000133225341172544
2.074	4.3966290314752e-06
2.076	-0.000196309242352459
2.078	-3.02709527342061e-05
2.08	-0.00027361182253621
2.082	-1.45704554327351e-05
2.084	3.87279305565218e-05
2.086	-0.000108102286043565
2.088	-0.000105821518329812
2.09	-0.000274338012553911
2.092	-0.000148383986830209
2.094	0.00013085473860768
2.096	0.000200689951688383
2.098	0.000344860889325571
2.1	-0.000326067618243191
2.102	-0.000670692833703786
2.104	-0.000490089000131853
2.106	-0.000556882388391724
2.108	-1.54063062703706e-05
2.11	8.88006549968064e-06
2.112	-0.000258140509374828
2.114	0.000194876228945214
2.116	-7.520620423719e-05
2.118	0.000104368765798976
2.12	0.000151343652989839
2.122	1.93129462092482e-05
2.124	-7.60816699927324e-06
2.126	-0.000106922445162522
2.128	6.45928226090141e-05
2.13	0.000189830678920507
2.132	-1.59368250557588e-05
2.134	5.8450819291568e-05
2.136	-0.000149584122935058
2.138	-0.000128273785396905
2.14	0.00023786576664496
2.142	7.9216946540952e-05
2.144	0.000131788367387102
2.146	4.39202384370193e-05
2.148	-0.000117241487214727
2.15	0.000178800528466908
2.152	8.26964713941299e-05
2.154	0.000195128929018188
2.156	0.000198061818512173
2.158	-1.51032358119876e-05
2.16	0.000104450189267834
2.162	-2.4211484934775e-05
2.164	0.000183616571592853
2.166	0.000210876300901445
2.168	-7.74066326838601e-05
2.17	-1.82532959264473e-05
2.172	-0.00018697170856196
2.174	-6.43387232120036e-05
2.176	0.000165834924892486
2.178	-0.000238343587316782
2.18	-2.09851060194429e-05
2.182	-0.000227520407273624
2.184	-0.000196266370608842
2.186	-1.0942892342976e-05
2.188	-6.66988667246283e-05
2.19	5.42395577789902e-05
2.192	-0.000106116066126197
2.194	-0.000180170166750908
2.196	-7.82171918631862e-06
2.198	-0.000152185380865074
2.2	0.000164228861100197
2.202	-2.48033249593381e-05
2.204	-0.000136588778461662
2.206	5.1284939430159e-06
2.208	-0.000174210379492605
2.21	-3.50539981744172e-05
2.212	7.00942954338907e-05
2.214	-0.000152522605111653
2.216	3.83180176524218e-05
2.218	-0.000220282049169461
2.22	-0.000164905505190032
2.222	0.000134683765891356
2.224	-3.12807923614609e-05
2.226	0.000110665698087966
2.228	-0.000163372935252599
2.23	-0.000226214142706076
2.232	4.8054160958721e-05
2.234	-4.6694307037371e-05
2.236	4.77472775821498e-05
2.238	-0.000104119977746085
2.24	-0.000258423638501363
2.242	-3.17818559982232e-05
2.244	-0.000192861650591089
2.246	0.000115953155555291
2.248	9.05836488425443e-05
2.25	-0.000139214266625051
2.252	3.31337428377352e-05
2.254	-0.000172574356907228
2.256	-0.000128257247303442
2.258	0.000127524893155037
2.26	-8.09584278346945e-05
2.262	6.57126731391962e-06
2.264	-0.00018982536029885
2.266	-8.02994733969508e-05
2.268	5.02967301118743e-05
2.27	-0.000136024558006975
2.272	1.53991099435281e-05
2.274	-5.96599893604315e-06
2.276	-2.95131180287487e-05
2.278	-8.48844995835994e-05
2.28	-0.000553227233344051
2.282	-0.000461290340279016
2.284	-0.00053114534205097
2.286	-0.000444235738765274
2.288	-3.58799898777073e-05
2.29	-7.31568130784267e-05
2.292	4.35975332745869e-05
2.294	9.5244024350801e-05
2.296	-5.9773625612922e-05
2.298	4.52961419034903e-05
2.3	-1.45632093948619e-05
2.302	-2.6536479744965e-05
2.304	0.000109188408681056
2.306	-4.2208216796742e-05
2.308	4.80873105486495e-05
2.31	-0.00023590465562968
2.312	-0.000130556038380731
2.314	3.75638854407662e-05
2.316	1.87551879751771e-05
2.318	0.000273626874814239
2.32	-2.00245959271463e-06
2.322	-0.00022003199451079
2.324	3.9246768320909e-05
2.326	4.49508631817629e-05
2.328	0.000233705936644102
2.33	0.000202464920815896
2.332	-0.000134018723488761
2.334	0.000116025151952833
2.336	-0.000148442648969549
2.338	0.000225253326573602
2.34	0.000221993791034688
2.342	6.73176967294527e-05
2.344	0.000230154946901425
2.346	8.8904621006575e-05
2.348	0.000126767447062694
2.35	0.000208137424805788
2.352	0.000149902045499955
2.354	1.13461014356285e-05
2.356	-0.000102675327244112
2.358	-0.000135007539887716
2.36	-7.0313196145562e-05
2.362	-1.7260863736728e-05
2.364	0.000138120507123234
2.366	-0.000166558118903916
2.368	-0.000288749709399298
2.37	-0.000111034400851545
2.372	-0.000218805003000457
2.374	-3.48042936908289e-05
2.376	4.10135508884045e-06
2.378	-0.000151759672654237
2.38	-0.000113853930059219
2.382	-0.000268352926610358
2.384	-6.77692625701715e-05
2.386	0.000184743200282192
2.388	-0.000136764564980126
2.39	6.94434884278493e-05
2.392	-0.00025481467183893
2.394	-7.58725016524381e-05
2.396	7.86707128332887e-05
2.398	-5.75957980808267e-05
2.4	2.51203523100029e-05
2.402	-0.000104036728779315
2.404	-0.000175839898935049
2.406	2.07577684174899e-05
2.408	-0.000130030221994388
2.41	8.97631655872461e-05
2.412	-4.46494287420735e-05
2.414	-0.000172047019373518
2.416	-0.000110317074863522
2.418	-0.000152704537637752
2.42	4.67294188106056e-05
2.422	2.24581964670218e-05
2.424	-0.000171357681598233
2.426	-0.000146790545171091
2.428	-0.000326396597964913
2.43	-0.000163570423808941
2.432	0.000137240458728341
2.434	-8.03049185203647e-05
2.436	-1.69469011949282e-05
2.438	-0.000295188303131284
2.44	-0.000279281823443079
2.442	-3.30172054854525e-05
2.444	5.78260834642433e-05
2.446	0.000103230314907218
2.448	-0.000118752396469405
2.45	-0.000221093772094296
2.452	-0.000119784340869617
2.454	9.6240045906708e-06
2.456	3.63453835266588e-05
2.458	-1.18638452827603e-05
2.46	-0.000264259764308303
2.462	-9.273910364965e-05
2.464	-0.00019352444686178
2.466	-3.75956564327989e-05
2.468	7.15526387263672e-05
2.47	-0.000119901267113822
2.472	-0.000158751474739965
2.474	-0.000221765333774932
2.476	-0.000188337019949306
2.478	2.87607378638775e-05
2.48	-7.60429352744098e-05
2.482	0.000191074685641043
2.484	7.00822093782091e-05
2.486	-7.26786125275364e-05
2.488	-0.000176187738233823
2.49	-0.000413782155824613
2.492	-0.000293301966080608
2.494	-0.000394149792232668
2.496	-0.000336209900513223
2.498	3.96597133398649e-05
2.5	-0.000100391419976685
2.502	8.60828144075565e-05
2.504	0.000180638933278118
2.506	-0.000115617355844706
2.508	4.05309574222057e-05
2.51	-0.000163013333314176
2.512	9.25855883713739e-05
2.514	0.000122199478318343
2.516	-2.81982666305942e-05
2.518	0.000121714018384256
2.52	-0.000247285914168896
2.522	-0.000164828119314366
2.524	0.000217719867913915
2.526	-5.8283603839194e-05
2.528	1.77113146793914e-05
2.53	-6.27934597495678e-05
2.532	-0.000246571405634048
2.534	0.000110555714807395
2.536	-4.30407286480547e-06
2.538	0.000180302215557658
2.54	0.000138747726479937
2.542	-1.0063203326263e-05
2.544	4.35217037322018e-05
2.546	-5.47499362174478e-05
2.548	0.00022891051577027
2.55	0.000327262438374075
2.552	-2.45951303067713e-05
2.554	0.000176973945933195
2.556	-0.000118314388578309
2.558	-4.524831877876e-05
2.56	0.00011393065893338
2.562	-0.000164455511930615
2.564	-1.18633436464789e-05
2.566	-0.000237247632449325
2.568	-0.000185751816807639
2.57	2.70645588425785e-05
2.572	-0.000163600526842539
2.574	3.63886363956083e-05
2.576	-0.000118781784021362
2.578	-0.000180433048860417
2.58	-4.32965823123109e-05
2.582	-0.00015466976285202
2.584	8.82057248793021e-05
2.586	-4.68614700631867e-05
2.588	-0.000192812976887021
2.59	-7.51885916489674e-05
2.592	-0.000235037375867341
2.594	5.25767495530898e-05
2.596	0.000139975928560834
2.598	-0.000139687366602543
2.6	1.1060787134454e-05
2.602	-0.000171379152926392
2.604	-0.000123672800161017
2.606	0.000115998149822526
2.608	-0.000149324333291806
2.61	2.94632508065711e-05
2.612	-0.000170743677543438
2.614	-0.000119897624365384
2.616	-7.10657657705828e-05
2.618	-0.000140492676259151
2.62	6.43891113567748e-08
2.622	-5.4077771236846e-05
2.624	-0.000182198496965336
2.626	-9.92541772911481e-05
2.628	-0.000101245193328283
2.63	8.7804924562696e-05
2.632	4.75267883881205e-05
2.634	-0.000136870403611675
2.636	-1.72362858170181e-05
2.638	-0.000214387864673888
2.64	-4.65351444326815e-05
2.642	6.59390961816772e-05
2.644	-0.000198834516219561
2.646	2.49760254034625e-05
2.648	-0.000149855559453802
2.65	-0.000178226795560344
2.652	5.14357180920823e-05
2.654	-8.36323319363802e-05
2.656	-2.71954220195706e-06
2.658	-0.000126073771504623
2.66	-0.000171977506249722
2.662	-6.97900499371605e-05
2.664	-0.000235797366625565
2.666	0.000256729655076179
2.668	-0.000101046523702976
2.67	-0.000333041420074451
2.672	-0.000156676877029328
2.674	-0.000220397297272834
2.676	-6.53715311685276e-06
2.678	0.000109634882867103
2.68	-0.000221963782089683
2.682	-2.8693552522853e-05
2.684	-0.000250331638640341
2.686	1.53332573427091e-05
2.688	0.000176811861030558
2.69	-2.63799150822183e-05
2.692	3.15732126059788e-05
2.694	-0.000117313081170559
2.696	-0.000112103737072078
2.698	0.000103309100465993
2.7	4.89610329560429e-05
2.702	7.66310998678736e-05
2.704	-0.000134326311007478
2.706	-0.000225244380727761
2.708	-4.55777602061881e-05
2.71	-5.77000448083623e-05
2.712	5.13126058062308e-05
2.714	1.78741143730734e-05
2.716	-0.000261065741994496
2.718	-7.49245501817501e-05
2.72	-0.000251944008201588
2.722	1.45001496017485e-05
2.724	0.00019818279617624
2.726	0.000166719165357384
2.728	0.000217929419843266
2.73	-0.000378108295870747
2.732	-0.000593358287063806
2.734	-0.000333362949656497
2.736	-0.000324833839429619
2.738	-1.6310951842586e-05
2.74	-0.000154504071349991
2.742	-0.000133573382049164
2.744	0.000147144809158677
2.746	-3.82617591858768e-05
2.748	0.000257455570821758
2.75	-6.86156285994507e-05
2.752	-0.000195062783688436
2.754	-5.76254099092316e-05
2.756	-1.38477114357257e-05
2.758	1.81588168449255e-05
2.76	8.35765864643484e-05
2.762	-0.000154743736497172
2.764	-4.42945686669293e-05
2.766	-0.000144800355386895
2.768	0.000115560292870255
2.77	0.000145587464615354
2.772	-2.41660298469073e-05
2.774	0.000150067322114521
2.776	-0.000165289676120144
2.778	-5.23660427910555e-05
2.78	0.000125221227469879
2.782	0.000100594150331567
2.784	0.000295186696145382
2.786	7.45584911542389e-06
2.788	-4.17235143067974e-05
2.79	0.00019265794115394
2.792	0.000132532559528749
2.794	0.000248312344060006
2.796	0.000163848827267746
2.798	3.0207538411203e-05
2.8	-1.14241259325076e-05
2.802	-2.81797529054071e-05
2.804	0.00011817627985171
2.806	0.000124378451642711
2.808	-0.000134691236433288
2.81	-0.000101200259253566
2.812	-0.000163636971121665
2.814	-5.27265982581685e-05
2.816	7.6462567527909e-05
2.818	-3.46958341116276e-06
2.82	4.65090953422771e-05
2.822	-0.00025933198120092
2.824	-0.00022381617946211
2.826	0.000149399002274045
2.828	-0.000139307916900026
2.83	3.38573863514525e-05
2.832	-0.000154540956881197
2.834	-0.000280654511357487
2.836	2.58840809315791e-05
2.838	5.56462314625442e-05
2.84	0.000361655901285606
2.842	0.000194497806818718
2.844	-0.000398945539692994
2.846	-0.000560696979554268
2.848	-0.000804811108354091
2.85	-0.000408966603416333
2.852	3.10390020029677e-05
2.854	-9.83199278825635e-05
2.856	-1.07777905335105e-05
2.858	-0.000337408482559112
2.86	-0.000140257946711475
2.862	9.99765445266685e-05
2.864	-7.01812683155368e-06
2.866	-1.79431527292948e-05
2.868	-5.12778297487362e-05
2.87	-0.000118552326497372
2.872	0.000124853019283116
2.874	4.03839605490395e-05
2.876	0.000156760082970871
2.878	6.56679790965531e-05
2.88	-6.25483557238619e-05
2.882	0.000107636789166786
2.884	-3.57552133266743e-05
2.886	0.0002984336745288
2.888	0.000160493150262996
2.89	9.37569205961313e-05
2.892	3.36200323708106e-05
2.894	-7.35739319620617e-05
2.896	0.000111121855584496
2.898	0.000193971011733323
2.9	9.94360387078407e-06
2.902	6.91131934970869e-05
2.904	-5.9140637758639e-05
2.906	-1.9777246415479e-05
2.908	0.00024342893527362
2.91	4.10987900078548e-05
2.912	0.000180844323138079
2.914	-0.000160843926984763
2.916	-0.000144134283910239
2.918	3.11419787546537e-05
2.92	-0.000170671859554126
2.922	0.000122028249234156
2.924	3.45068618951693e-06
2.926	-0.000131497676901559
2.928	-3.45374398932771e-05
2.93	-0.000143643465869473
2.932	0.000106758311661629
2.934	6.51262628328953e-05
2.936	-2.89121821659134e-05
2.938	5.33357611279208e-05
2.94	-0.000152813510654454
2.942	8.70887865656571e-05
2.944	0.000490508937374805
2.946	-0.000140438919048188
2.948	-0.000500009764539343
2.95	-0.000695857692622287
2.952	-0.000594765745517019
2.954	-1.38698417075969e-05
2.956	-8.56493619464194e-05
2.958	2.09918256579976e-05
2.96	5.78744898269393e-06
2.962	-0.000179891191783458
2.964	7.16727074126762e-05
2.966	-0.00013686321694099
2.968	0.000107434229639836
2.97	8.5430507792736e-05
2.972	-7.43001526713871e-05
2.974	4.37833920192633e-05
2.976	-0.000148982705685717
2.978	0.000123237072000824
2.98	0.00020534919889538
2.982	-9.59095521305815e-06
2.984	0.000139157467133439
2.986	-0.000198980210486539
2.988	9.5720345698772e-05
2.99	0.000251509547306174
2.992	-4.70274148845623e-07
2.994	8.15204191999904e-05
2.996	-2.19529648930321e-05
2.998	0.000132886438567801
3	0.000169821761290609
3.002	1.49533366844113e-05
3.004	0.000218034712279133
3.006	5.9314610562045e-05
3.008	-0.000175987861376374
3.01	5.04003389230161e-05
3.012	-0.000146206922967759
3.014	0.000231709720781396
3.016	9.80655883594561e-05
3.018	-0.000155009485180747
3.02	-2.37849709925673e-05
3.022	-0.000175014477590735
3.024	-8.166594600554e-05
3.026	0.00012206713433065
3.028	-0.00013437833662349
3.03	-3.10158460973227e-05
3.032	-0.000172540831981635
3.034	-9.73656044298634e-05
3.036	0.000136226921594922
3.038	-1.65062956959758e-05
3.04	3.77354530339505e-06
3.042	-0.000130225209537509
3.044	-0.00020859115099726
3.046	5.28889409119053e-05
3.048	-6.7472829098029e-05
3.05	9.44239474829702e-05
3.052	-3.93531670116127e-05
3.054	-0.000244842584811962
3.056	-8.85948795552074e-05
3.058	-0.000148883880214392
3.06	-1.36016881854952e-05
3.062	0.000100996530928801
3.064	-0.000221142876890248
3.066	-7.01169461253776e-06
3.068	-0.000240716044309524
3.07	-1.06106084372436e-05
3.072	0.000154675474497203
3.074	-0.000156531249529197
3.076	-1.43954034340756e-05
3.078	-0.00020702615907348
3.08	-0.000155021616050964
3.082	-1.2832924600401e-05
3.084	-7.92057083359268e-05
3.086	0.000109796927425044
3.088	-0.000117508676048828
3.09	-0.00024011991328289
3.092	2.44317409611476e-05
3.094	-0.000213103430237411
3.096	1.21818127550308e-05
3.098	7.72138050727078e-05
3.1	-0.000199648064625565
3.102	1.54917508096892e-06
3.104	-0.000214012923332523
3.106	6.17138584805482e-05
3.108	1.01044972087047e-05
3.11	-0.000128106314275699
3.112	-0.00013574816529938
3.114	-0.000202896089774382
3.116	-7.25438751563308e-05
3.118	8.2340333438028e-05
3.12	-0.000107954807381085
3.122	7.51334961959841e-05
3.124	-0.000199683773399375
3.126	-0.000189317505954864
3.128	-3.0918342393477e-05
3.13	-5.2101842990352e-05
3.132	0.000232950282406718
3.134	0.000123234393338871
3.136	7.8016000874157e-05
3.138	3.38149000172505e-06
3.14	-0.000459131834630343
3.142	-0.000409725875678367
3.144	-0.000315363329086883
3.146	-0.000458357789838391
3.148	-0.000141806208051075
3.15	-0.000150340273229669
3.152	-1.96394420680319e-05
3.154	0.000173639167542204
3.156	-9.23275224032239e-05
3.158	0.000105474854166914
3.16	-0.000203486056273307
3.162	-4.01429614545199e-05
3.164	9.88885513131383e-05
3.166	-1.46143219616208e-05
3.168	0.000184550967882158
3.17	-0.000127349285309138
3.172	-0.000185656689161381
3.174	4.14671697684276e-05
3.176	-4.44281945097043e-06
3.178	0.000174869877578311
3.18	3.89185504983063e-05
3.182	-9.57832170573587e-05
3.184	-4.13054088985497e-05
3.186	-0.000153019487432308
3.188	0.000101881025344138
3.19	0.000279128727438254
3.192	-2.2572054207558e-05
3.194	-4.64453391670928e-06
3.196	-5.35141889722394e-05
3.198	9.70662165298885e-05
3.2	0.000204932564360184
3.202	-1.91039798690873e-05
3.204	2.84287974184091e-05
3.206	-0.000126413278574424
3.208	-0.000146407852985036
3.21	0.000165027234815984
3.212	-0.000102096528180603
3.214	0.000121124531626715
3.216	-0.000102310807271996
3.218	-0.000269224712170726
3.22	2.28000964832231e-05
3.222	-0.000122952506648549
3.224	5.48219932994143e-05
3.226	1.6241889685751e-05
3.228	-0.00021654559075866
3.23	-0.000122195583230877
3.232	-0.000134397483339571
3.234	3.13750851545461e-05
3.236	0.000135188670632012
3.238	-0.000172663330817153
3.24	-3.81023436103264e-05
3.242	-0.000237079913663513
3.244	-0.000105199629068055
3.246	3.51646868088375e-05
3.248	-7.43425897502678e-05
3.25	4.76959495196361e-05
3.252	-0.000199309181492132
3.254	-0.000198625899630483
3.256	-1.82951288668461e-05
3.258	-0.000175909140814054
3.26	-3.6873402394548e-05
3.262	-6.34125117837476e-05
3.264	-0.000352727929276664
3.266	-1.18666037615517e-05
3.268	-3.24781013457131e-05
3.27	0.000327971811176861
3.272	0.000117724568607954
3.274	-0.000433768213129292
3.276	-0.000464893391735641
3.278	-0.000565990014611204
3.28	-0.00034220253910782
3.282	-6.2928319031006e-05
3.284	-0.000111085371929147
3.286	5.65210944948094e-05
3.288	-5.26838441057663e-05
3.29	-0.000192352876375257
3.292	0.000168926286173287
3.294	-9.09757794025683e-06
3.296	5.62941507791851e-05
3.298	-5.72277081645595e-05
3.3	-0.000183020649539583
3.302	1.95447445279861e-05
3.304	-2.22957678414647e-05
3.306	0.000238105677933972
3.308	3.03920279710112e-05
3.31	-0.000183235528626504
3.312	-0.000134348500978638
3.314	-0.000229208580416586
3.316	7.7287900060445e-05
3.318	0.000108741780191654
3.32	-0.000105194902878569
3.322	-5.0156148838144e-05
3.324	-0.00010065328482307
3.326	4.58241402477502e-05
3.328	0.000215638420665753
3.33	3.61546115844134e-05
3.332	0.000134502385093446
3.334	9.3034256598165e-06
3.336	-1.04415611339647e-05
3.338	0.000181983209409293
3.34	8.16417126466524e-05
3.342	0.000148115714170914
3.344	-7.02242002786799e-05
3.346	-0.000117790478943321
3.348	1.54327593980301e-05
3.35	-6.26092726489365e-05
3.352	0.000164468183082656
3.354	4.82625707813847e-05
3.356	-0.00035967218113623
3.358	-8.64362723097689e-05
3.36	-0.000101152808002546
3.362	-5.36864292067976e-05
3.364	2.69011720454156e-05
3.366	-0.00026587311146133
3.368	-0.000144154766605892
3.37	-0.000174858307833282
3.372	-0.000140094289317128
3.374	0.000171557785961179
3.376	2.04566987505901e-06
3.378	6.45147057345115e-05
3.38	9.62634502011267e-05
3.382	-2.15828057187233e-05
3.384	-0.000356744884171678
3.386	-0.000672571362642868
3.388	-0.000357304900124366
3.39	-0.000250860370440874
3.392	-0.000274968465657116
3.394	7.84483621430022e-05
3.396	-9.45303820874854e-05
3.398	0.000139255644580263
3.4	0.000107304087195797
3.402	-0.000108483024255526
3.404	-8.90632654758162e-05
3.406	-0.000158945864711802
3.408	4.08793945234681e-05
3.41	7.88003531992189e-05
3.412	-8.58477838088102e-05
3.414	5.6427560338621e-05
3.416	-0.000239433025292145
3.418	-0.000117325537131417
3.42	6.93005742647517e-05
3.422	-2.16515526827977e-05
3.424	6.97344475574155e-05
3.426	-8.79851782180811e-05
3.428	-0.000181963660037243
3.43	4.57760896122903e-05
3.432	1.66468971703324e-05
3.434	0.000273050899559682
3.436	0.000178564452248672
3.438	-0.000125114025623017
3.44	8.85968111152468e-05
3.442	3.38207011689408e-05
3.444	0.000193051169258088
3.446	0.000210668946007001
3.448	4.45190261403006e-05
3.45	4.28706726502352e-05
3.452	-0.000166263863087706
3.454	-5.42623326603267e-05
3.456	0.000119942787649417
3.458	-4.71135663714881e-05
3.46	-9.73752098048918e-05
3.462	-0.000235120215485342
3.464	-0.000226303377192875
3.466	3.66334010699332e-05
3.468	-0.000111996411292657
3.47	0.000118451573918327
3.472	-0.000250695802165708
3.474	-0.000184916303427719
3.476	-7.60637454437463e-05
3.478	-3.11967880635459e-05
3.48	3.8720224061112e-05
3.482	8.95718229301408e-06
3.484	-0.000160805378628036
3.486	-6.27143562407245e-05
3.488	-0.000179293508658696
3.49	4.09922540314031e-05
3.492	0.000134534262810807
3.494	-0.000144219244745016
3.496	-7.42670622829981e-05
3.498	-0.000232812949070871
3.5	-0.000135599472072103
3.502	6.44865751350598e-05
3.504	0.000105851470476146
3.506	0.000214870425140155
3.508	0.000119114168066745
3.51	-0.000149376438145945
3.512	-0.00050542220619847
3.514	-0.000712952349587269
3.516	-0.000329871773502271
3.518	-0.000288655587409426
3.52	-0.000259778697234984
3.522	-8.96018248245763e-05
3.524	-9.20025663164218e-05
3.526	0.000124362264055943
3.528	0.00012800338869468
3.53	-0.000109031666779709
3.532	-6.37736592893956e-05
3.534	-0.000161611852286064
3.536	2.38108006522663e-05
3.538	0.000161825285110003
3.54	-4.46881207101761e-05
3.542	-9.36096624182651e-06
3.544	-0.00014418726754338
3.546	-3.65812742100498e-06
3.548	0.000170509409739345
3.55	-2.60090355246369e-05
3.552	0.000203435224777561
3.554	-2.17730894838672e-05
3.556	-4.41864594822737e-05
3.558	8.18306115770805e-05
3.56	5.39957499950375e-05
3.562	0.000347123045627291
3.564	0.000130298678121985
3.566	-5.34026907075105e-05
3.568	6.04403226675669e-05
3.57	-1.42979749377061e-05
3.572	0.000202087437399022
3.574	0.000152997234669826
3.576	6.57593613655268e-05
3.578	5.93158782049252e-05
3.58	-0.000266205589295055
3.582	-2.41680150564042e-05
3.584	0.000102361592541176
3.586	-0.000129574742514671
3.588	3.82344436355595e-05
3.59	-0.000225078556349807
3.592	-0.000161908615744668
3.594	-3.37696420082362e-05
3.596	-0.000135274346612019
3.598	6.30609525222073e-05
3.6	-9.93178243460092e-05
3.602	-0.000148629880243447
3.604	2.39398590892631e-06
3.606	-0.000204726907229953
3.608	3.13212115275716e-05
3.61	0.000115868993908177
3.612	-0.000198438557212717
3.614	-1.2287310892641e-05
3.616	-0.000164651398379107
3.618	8.60436970773286e-05
3.62	0.000163383118926445
3.622	-8.45622701409319e-05
3.624	1.97723133941637e-05
3.626	-0.000261613245277546
3.628	-0.000115005306839909
3.63	0.000135679440167124
3.632	-3.51208170224348e-05
3.634	6.64555633560515e-05
3.636	-0.000191633672995591
3.638	-0.000243775963829143
3.64	-6.25025567596787e-05
3.642	-0.000175870607143758
3.644	4.40814770403827e-05
3.646	-0.000119817095873151
3.648	-0.000336891665112126
3.65	-0.000129907866176421
3.652	-0.000213019088274286
3.654	1.86638194961867e-05
3.656	7.04670062731021e-05
3.658	-0.000215533618839541
3.66	-0.00014642949920704
3.662	-0.000126881858973101
3.664	-2.39884051320874e-05
3.666	0.000135351414298143
3.668	-6.07566910670717e-05
3.67	-6.11111730806667e-06
3.672	-0.000289970402588114
3.674	-0.000123512486266319
3.676	-1.73518627444624e-05
3.678	-0.000120015906265675
3.68	2.90179280501195e-05
3.682	-0.000121105699335176
3.684	-0.000179008774185145
3.686	-7.8243782881359e-05
3.688	-8.19784310914927e-05
3.69	4.23540739686483e-05
3.692	-4.55271447239769e-05
3.694	-0.000243807509284133
3.696	-0.000122857488216776
3.698	-0.000131898919613111
3.7	8.3452720177636e-06
3.702	3.10216453382424e-05
3.704	-0.000112582053453221
3.706	-2.09950273320591e-05
3.708	-0.000183560988952173
3.71	6.35417383586459e-07
3.712	6.25495985312477e-05
3.714	-9.48897723009192e-05
3.716	2.75314702640457e-05
3.718	-0.000193520283690693
3.72	-8.4094945324692e-05
3.722	4.4895282540721e-05
3.724	8.88258528967954e-06
3.726	0.000186465330172489
3.728	-0.000131833826543453
3.73	-0.000234752747356177
3.732	0.00018327665767508
3.734	0.000198958348194449
3.736	9.69357787245787e-05
3.738	-0.000227191535052438
3.74	-0.000698571374610296
3.742	-0.000529627805717974
3.744	-0.000574300741285221
3.746	-5.32766809148817e-05
3.748	0.00015628387631926
3.75	-0.00010150160285465
3.752	-2.28841370360429e-05
3.754	-0.00014098692191687
3.756	-5.70032819725118e-05
3.758	0.000173303532011468
3.76	-1.34670453820813e-05
3.762	0.000142291934588553
3.764	-0.000137860565068337
3.766	-0.000195943310176638
3.768	8.76366921542575e-05
3.77	5.9365642088353e-05
3.772	9.9546886847216e-05
3.774	-4.64685493316975e-06
3.776	-0.000109355266879536
3.778	1.1954048788266e-05
3.78	7.81624911486011e-07
3.782	0.000189305344995404
3.784	0.000108607203403093
3.786	-0.000142023933759169
3.788	5.47801287050925e-05
3.79	-0.000161856539588232
3.792	6.32735141026807e-05
3.794	0.000238287829345887
3.796	2.98923261477532e-05
3.798	-1.53418764289266e-05
3.8	-0.000123315401011734
3.802	6.35274348908839e-06
3.804	0.000170066979570076
3.806	6.95811340726727e-05
3.808	0.000159626678702712
3.81	-0.000175260856352165
3.812	-0.000116947637186363
3.814	6.46072239441881e-05
3.816	-5.90491112432909e-05
3.818	0.000171719426491805
3.82	-0.000104087453527214
3.822	-0.000277978460400341
3.824	-5.38672149314887e-05
3.826	-0.000126099376774051
3.828	0.000139956100809397
3.83	4.91892961381195e-05
3.832	-0.000137896690578693
3.834	-9.532685723896e-05
3.836	-0.000173476773604975
3.838	-6.87504262427191e-05
3.84	-2.28360975342228e-05
3.842	-0.0001645159317095
3.844	2.83605328356674e-05
3.846	-0.000292972756795187
3.848	-0.000187355499141635
3.85	0.000122427325259068
3.852	-0.000120923167550543
3.854	-1.68755485045995e-05
3.856	-0.00014783407096631
3.858	-0.000268609941184449
3.86	-5.78325996051552e-05
3.862	-0.000161490024671741
3.864	0.00023261265789928
3.866	0.000254079977285801
3.868	0.000165815173191441
3.87	1.69328750394965e-05
3.872	-0.00056163026659194
3.874	-0.00030377879644619
3.876	-0.000231542308523218
3.878	-0.00030365284763263
3.88	-0.000112147361073464
3.882	-0.000222081779605795
3.884	-6.39074144555199e-05
3.886	0.000130761064155139
3.888	-0.000118534477408758
3.89	3.22885234820978e-05
3.892	-0.000199583024132279
3.894	-0.00015717577190761
3.896	4.86933027151369e-05
3.898	-5.06372682922907e-05
3.9	0.000111560898547243
3.902	-4.68347874874193e-05
3.904	-0.000226348779284818
3.906	-5.00171928761213e-05
3.908	-0.000132234684490924
3.91	0.000190845857293259
3.912	6.37574760811815e-05
3.914	-0.000206506079414367
3.916	4.99320480247106e-05
3.918	-0.000139079705536615
3.92	8.32516518225526e-05
3.922	0.000234775812857394
3.924	8.35430047820998e-05
3.926	0.000126122573274707
3.928	-6.51404577618344e-05
3.93	0.000114837606319832
3.932	0.00032980764966493
3.934	8.67169971060582e-05
3.936	4.35240700661314e-05
3.938	-4.95221301506387e-05
3.94	-0.000141346555855597
3.942	6.60652408087899e-05
3.944	-0.000185528685402922
3.946	5.78360525688297e-05
3.948	-5.51287520095671e-05
3.95	-0.000312058001357961
3.952	-0.00010670713086436
3.954	-0.00024752124712902
3.956	3.52648964780164e-05
3.958	2.55919889131293e-05
3.96	-0.0002988181585951
3.962	-5.71719306425754e-05
3.964	-0.00034526439258833
3.966	-0.000152415179668629
3.968	0.000124969741481475
3.97	-1.82891064363528e-05
3.972	1.11400976235499e-05
3.974	-0.000195369132288328
3.976	-0.000186093077815323
3.978	1.51901733973407e-05
3.98	-9.68369438855223e-05
3.982	0.000198673717803891
3.984	-7.91295082387583e-05
3.986	-0.000195498170159795
3.988	4.75517056745181e-05
3.99	-0.000152277264985222
3.992	5.31945725033303e-05
3.994	-1.90111720773099e-05
3.996	-0.000207444867074242
3.998	1.83398435410745e-05
4	-0.000211238370545623
4.002	-4.88223736932514e-05
4.004	9.61588187275718e-05
4.006	-0.000107086910558065
4.008	-4.24965569001978e-05
4.01	-0.000248976377159714
4.012	-0.000104037698652843
4.014	8.69506173877489e-05
4.016	-0.000104223374632249
4.018	-3.7336999954864e-06
4.02	-0.000219074703295259
4.022	-0.000239287050611523
4.024	-7.64946148898622e-05
4.026	-0.000150385538973821
4.028	7.94203867512736e-05
4.03	-7.96700663330774e-05
4.032	-0.000185420826837132
4.034	5.00409197723488e-05
4.036	-0.000143781020684668
4.038	0.000158421770064669
4.04	0.000149774676895984
4.042	-0.000283031211814478
4.044	-8.82086559532249e-05
4.046	-0.000231733342847516
4.048	-4.87544136261068e-05
4.05	0.000119556139127454
4.052	-0.000119890319544978
4.054	-8.5822474722272e-06
4.056	-0.000222241086492139
4.058	-0.000238992595209168
4.06	7.66017020683783e-05
4.062	3.80423122311212e-06
4.064	0.000246961576728609
4.066	8.70913144387987e-05
4.068	-0.000371502363119437
4.07	-0.000318645493250889
4.072	-0.000494581072885948
4.074	-0.000130031434157142
4.076	-0.000272068303611306
4.078	-0.000333846242127025
4.08	5.21276268234138e-05
4.082	-2.22809168405737e-05
4.084	0.000169569916837109
4.086	0.000125720859446083
4.088	3.6455461049056e-05
4.09	3.14489955633711e-06
4.092	-0.000107515833398902
4.094	8.20196141197818e-05
4.096	0.000119769004007695
4.098	3.01807835574379e-05
4.1	0.000104994179683755
4.102	-0.000146343519879162
4.104	-0.000103673708875469
4.106	9.43015630770935e-05
4.108	9.55554895230912e-05
4.11	0.000171271007838897
4.112	-7.02907303950126e-05
4.114	-7.00561234618638e-05
4.116	-3.75053211689011e-05
4.118	-7.39375643005298e-05
4.12	0.00015816045923247
4.122	0.000213005504794959
4.124	-1.1383236004087e-05
4.126	4.52548798913535e-05
4.128	-2.78353995065137e-05
4.13	0.000108687943651101
4.132	9.47641539178661e-05
4.134	1.27684450768585e-05
4.136	-3.5040535517961e-05
4.138	-7.57120293269444e-05
4.14	3.55120215394453e-05
4.142	0.000198116069884131
4.144	-8.30978277086576e-05
4.146	8.05204129271729e-05
4.148	-0.000150172012060411
4.15	-0.000149895553446276
4.152	5.52726670431163e-05
4.154	-2.75878301295969e-05
4.156	0.0001016187533254
4.158	-4.8759131285029e-05
4.16	-0.000195343698954953
4.162	2.09634480467634e-05
4.164	-6.31878280580866e-05
4.166	3.50792825368795e-05
4.168	0.000120017020584379
4.17	-0.000169894220235618
4.172	-7.66067280817293e-05
4.174	-0.000310879344455305
4.176	-2.54553419256498e-05
4.178	2.7104314703789e-05
4.18	-3.73195307203643e-05
4.182	-3.18956849634341e-05
4.184	-0.000155234088251448
4.186	-0.000201289286851455
4.188	2.87116222414371e-05
4.19	-4.9034058506651e-06
4.192	0.000112488915015665
4.194	-0.000118602402563412
4.196	-0.000244330855196079
4.198	4.25829037175469e-05
4.2	-4.26968741397311e-05
4.202	0.00013750801267269
4.204	4.75672905289944e-05
4.206	-0.000178809166535575
4.208	6.45848679576931e-05
4.21	-9.0752444282692e-05
4.212	9.45515206532049e-05
4.214	0.000156985842281801
4.216	-6.87430879449904e-05
4.218	1.09620832251232e-05
4.22	-0.000217046756455833
4.222	1.79851905782019e-05
4.224	2.35471407169896e-05
4.226	-0.000134308641576199
4.228	0.000119932135690523
4.23	-0.000216200923085762
4.232	-0.000145735181998969
4.234	1.67275345866349e-05
4.236	-9.17951109405905e-06
4.238	9.37066882256826e-05
4.24	-0.000178698630014062
4.242	-9.84658095211755e-05
4.244	0.000150142372974558
4.246	0.000135594023001259
4.248	8.06876206009995e-05
4.25	-0.000405851999076981
4.252	-0.000705709681982142
4.254	-0.000469808063995467
4.256	-0.000366571782221747
4.258	-1.42421295362808e-05
4.26	0.000170630101780665
4.262	1.86095736711239e-05
4.264	1.48846607689475e-05
4.266	-0.000206120354300438
4.268	-2.41070897647813e-05
4.27	6.70677772652787e-05
4.272	-0.00016783719890993
4.274	8.2227071537768e-05
4.276	-9.56951328794607e-05
4.278	-0.000206176755462377
4.28	-1.54746359115322e-05
4.282	4.72000899640884e-07
4.284	0.000221038274342768
4.286	0.000140318429328557
4.288	-9.47357607968486e-05
4.29	9.77999693822514e-06
4.292	-8.42106100886159e-05
4.294	0.000264446773296141
4.296	0.000115262719722078
4.298	-9.17040613659726e-05
4.3	4.89392348895264e-05
4.302	-0.000129781866907204
4.304	-1.37262302898024e-05
4.306	0.000245680040115228
4.308	6.16832919133948e-05
4.31	7.72085173689343e-05
4.312	4.82560929131183e-05
4.314	4.25928152670661e-05
4.316	0.000242278657163493
4.318	6.2591508240506e-05
4.32	0.00013180000625214
4.322	-0.000102012886664723
4.324	-0.000215622900294489
4.326	-1.71717284040702e-05
4.328	-7.99681645595747e-05
4.33	9.98637611672139e-05
4.332	-8.65382070255131e-05
4.334	-0.000243869007592015
4.336	-9.75699867679161e-06
4.338	-0.000206145309947195
4.34	1.76150772054719e-06
4.342	-2.92227096445404e-05
4.344	-0.000239247674211688
4.346	1.21299443287174e-05
4.348	-0.000328158717183983
4.35	-8.82107217997441e-05
4.352	0.000106254703839
4.354	-0.000113979215590921
4.356	-9.85450558269977e-05
4.358	-0.000164063243034226
4.36	-0.00022966592098697
4.362	7.74737459729033e-06
4.364	-5.68865664925237e-05
4.366	4.55408348224862e-05
4.368	-0.000102061418919491
4.37	-0.00011559846080903
4.372	-8.70083610194687e-06
4.374	-0.000148513143175402
4.376	0.000133938417191005
4.378	7.24235893420672e-05
4.38	-0.000164538468372887
4.382	-3.68475085364356e-05
4.384	-4.40372699294856e-05
4.386	6.50657646965345e-05
4.388	0.000162644088267355
4.39	-0.000177236529140686
4.392	-0.000127393653579545
4.394	-0.00027377123545086
4.396	-0.000195753050422681
4.398	3.26506347825995e-05
4.4	-0.00011691401492586
4.402	6.39372046085271e-05
4.404	-0.000232450672536512
4.406	-0.000239851286041725
4.408	-2.25046309554077e-05
4.41	-0.000122654987678039
4.412	7.74367349203409e-05
4.414	2.25329822894486e-05
4.416	-0.000195123013143824
4.418	-5.68976329540749e-05
4.42	-0.000170139448916006
4.422	0.000166827932456034
4.424	0.000136213808023831
4.426	7.75666566654647e-05
4.428	0.000280013340804213
4.43	-0.00033236347153357
4.432	-0.000338006443693622
4.434	-0.00043296788445782
4.436	-0.000624158514219812
4.438	-0.000201159078378501
4.44	-0.000182182545395487
4.442	-0.000109528567595564
4.444	0.000128725628610509
4.446	5.59658002501883e-05
4.448	5.3655651042409e-05
4.45	-0.000153981154610888
4.452	-0.00019735122379824
4.454	3.73647455240223e-05
4.456	-3.059489078617e-05
4.458	0.000158424324188643
4.46	-6.11535389570506e-06
4.462	-0.000212527041141223
4.464	-3.06962123559047e-05
4.466	-2.24972272620959e-08
4.468	7.75075901539036e-05
4.47	0.000185367377223621
4.472	-9.89954746272163e-05
4.474	0.000135467662615847
4.476	-7.60344760167528e-05
4.478	0.000100214014388954
4.48	0.000316022019711882
4.482	9.67837855919041e-05
4.484	0.000277796946005194
4.486	2.11249194003321e-05
4.488	-3.20453929581908e-06
4.49	0.000283707130306301
4.492	3.99912326764489e-05
4.494	0.000200784619429449
4.496	6.52708406425325e-05
4.498	-0.000118773981992484
4.5	2.45265495609342e-05
4.502	-5.56543205755528e-06
4.504	0.000189696052957514
4.506	4.09122127096026e-05
4.508	-0.000223220175256348
4.51	-0.000114363882017516
4.512	-0.00017431555485631
4.514	-5.95394175577065e-05
4.516	5.78006015331578e-05
4.518	-0.000175156315582547
4.52	-0.000145794233760214
4.522	-0.000114639567046815
4.524	-0.000144935426972767
4.526	0.000104170156874056
4.528	-1.92295847329578e-05
4.53	0.000272368889626611
4.532	-0.00015327461098522
4.534	-0.000491321176702627
4.536	-0.000612875266226663
4.538	-0.000711742145531488
4.54	-0.000328798593774086
4.542	-6.78817273263606e-05
4.544	-0.000254066967115723
4.546	-6.44353929537717e-06
4.548	-0.000119507414860446
4.55	5.71914825626992e-05
4.552	6.65484192005756e-05
4.554	-0.000191954891898262
4.556	-0.000115794168989693
4.558	-0.000194500393540677
4.56	-3.73847636745167e-05
4.562	0.000154443557759264
4.564	-0.000114085601575103
4.566	6.59232547038034e-05
4.568	-0.000147725682046644
4.57	-6.87803565606228e-05
4.572	0.00013809658994784
4.574	5.90613212029747e-05
4.576	0.00024173853375774
4.578	-4.09904512370173e-05
4.58	-5.22685365904372e-05
4.582	3.75475923030213e-06
4.584	0.00011150530667483
4.586	0.000197564635310178
4.588	0.000128348662250524
4.59	1.49814606102289e-05
4.592	7.39763070868167e-05
4.594	-5.37514496181224e-05
4.596	0.000149527848048419
4.598	0.000178044789228763
4.6	-4.38154819854062e-05
4.602	4.72275612483229e-05
4.604	-0.000176459267002974
4.606	-4.01574304925275e-05
4.608	2.7657451183779e-05
4.61	-0.000151233754838938
4.612	-1.10854159984982e-05
4.614	-0.000210521661839934
4.616	-0.00015852334434372
4.618	8.81049794128226e-05
4.62	-0.000130225620900827
4.622	0.000121773789078274
4.624	-0.000109015610192823
4.626	-0.000208960033583534
4.628	-7.31397212729519e-05
4.63	-7.08503373072465e-05
4.632	0.000127687771417535
4.634	2.74950106145615e-05
4.636	-0.000105089280754156
4.638	-0.000132402903763573
4.64	-9.04351078251663e-05
4.642	0.000146430745962385
4.644	0.000300345622585892
4.646	0.000206231342206951
4.648	8.00288061470165e-05
4.65	-0.000598523867226656
4.652	-0.000502348608311406
4.654	-0.000332154588563701
4.656	-0.000292126999009732
4.658	-0.00012531994199401
4.66	-0.000206177354881321
4.662	-0.000249671712094986
4.664	3.6121052745297e-05
4.666	-3.29917751878291e-05
4.668	0.000158951858038179
4.67	-9.55587854706258e-06
4.672	-0.000202812285091725
4.674	4.90977982262701e-05
4.676	-3.85412848048599e-05
4.678	0.000145737919912762
4.68	0.000107715761347028
4.682	-0.000140158854225214
4.684	5.38703083514394e-05
4.686	-0.000245461298903871
4.688	-2.8309551750701e-05
4.69	1.20023792084973e-05
4.692	-3.78792742508081e-05
4.694	7.17873163084549e-05
4.696	-0.000199358690098052
4.698	-6.44798102086137e-05
4.7	0.000137604627637132
4.702	-2.29054543910402e-05
4.704	0.000137009452905934
4.706	-5.26466580128686e-06
4.708	-0.000131089435217902
4.71	0.000143046041812063
4.712	-3.45818662637338e-05
4.714	0.000205774434687676
4.716	0.000102696274485466
4.718	-3.5020378432986e-05
4.72	8.08976136759374e-05
4.722	-0.000186496737656603
4.724	9.38734380129282e-05
4.726	9.56913556558816e-05
4.728	-0.000146749366991406
4.73	-4.67427342246812e-05
4.732	-0.000355157929478586
4.734	-7.86921530210729e-05
4.736	7.05343299433911e-05
4.738	-0.000127075462298481
4.74	-1.75591135917449e-06
4.742	-0.000254848593685841
4.744	-0.000236830640195894
4.746	5.44736880789205e-05
4.748	-5.73415067063006e-05
4.75	3.28852132582003e-06
4.752	-2.2872658231032e-05
4.754	-0.000182761352333902
4.756	-1.69600385004291e-05
4.758	-9.94878524978296e-05
4.76	0.000132635948721888
4.762	5.99393897948158e-05
4.764	-0.000143021898957819
4.766	-6.12492799818508e-06
4.768	-0.000174778448412149
4.77	2.45890106742206e-05
4.772	7.7566047848114e-05
4.774	-6.75655771130732e-05
4.776	-2.96387287925774e-06
4.778	-0.000291855804206355
4.78	-0.000118456074033897
4.782	0.00015682439595995
4.784	-0.00015061183031601
4.786	-5.95547565300706e-05
4.788	-0.000329632171632356
4.79	-0.00016011112025007
4.792	-2.95242883549122e-06
4.794	-0.000131807406562575
4.796	3.57656274274617e-05
4.798	2.65981602588772e-06
4.8	-0.000225711138719958
4.802	-5.61823188339906e-05
4.804	-0.000231738731708143
4.806	2.12257450632318e-05
4.808	-0.000108930056077057
4.81	-0.000148854835647506
4.812	1.03566384628153e-05
4.814	-0.000173025854390518
4.816	5.9357093152416e-06
4.818	8.69638198293841e-05
4.82	-3.76625085146943e-05
4.822	6.16600861421808e-05
4.824	-0.000225889900172184
4.826	-0.000112888969817913
4.828	0.000102649154863456
4.83	-6.75469497947784e-05
4.832	5.44040103241862e-05
4.834	3.25672822896531e-05
4.836	0.000116859527817217
4.838	7.06750524163802e-05
4.84	-0.000450921612327334
4.842	-0.000346041751956921
4.844	-0.000356559067035999
4.846	-0.000481809401257618
4.848	-0.000221323909956004
4.85	-0.000172034577257187
4.852	5.12942936156181e-05
4.854	2.97524412009211e-05
4.856	-0.000141953897318553
4.858	-0.000112321135326476
4.86	-0.000111183782227087
4.862	4.34468809958042e-05
4.864	0.000138736289817976
4.866	-2.37349784358369e-05
4.868	6.1275582624021e-05
4.87	-7.63712531507822e-05
4.872	-0.000104011296202865
4.874	0.000253003377153449
4.876	4.56077483230425e-05
4.878	0.000197030435075085
4.88	-0.000101603674304861
4.882	-0.00015234501159288
4.884	1.92818470264747e-05
4.886	-0.00010923166621821
4.888	0.000163040671873212
4.89	4.67160339874296e-05
4.892	-7.85685372634375e-05
4.894	6.18437330102951e-05
4.896	-1.64611094963821e-05
4.898	0.000181947337051704
4.9	0.000161705943706209
4.902	-1.83254191392743e-05
4.904	0.000104432445581726
4.906	-0.000153908813681027
4.908	4.53584508420974e-05
4.91	0.000129617865242464
4.912	4.01909696150812e-05
4.914	-3.02451554788942e-06
4.916	-8.34493255307333e-05
4.918	-0.000183315772594831
4.92	6.07839990392462e-05
4.922	-2.64190628525621e-05
4.924	8.72908143902832e-05
4.926	6.54583127186771e-06
4.928	-0.000236658684928378
4.93	-6.84148460713263e-05
4.932	-0.000163081663939374
4.934	6.49809249522558e-05
4.936	-8.41103805970269e-06
4.938	-0.000193869002677401
4.94	-6.01160438294665e-05
4.942	-0.000186208751972845
4.944	-7.51906276401128e-05
4.946	0.00010681777824093
4.948	-8.59199987298565e-05
4.95	-2.44162930472486e-05
4.952	-0.000204980989032591
4.954	-0.000187174942122969
4.956	-2.15121999452971e-05
4.958	-8.12899167114482e-05
4.96	1.18245265527636e-05
4.962	-7.79173481696899e-05
4.964	-0.000274516493200293
4.966	-4.52048328807599e-05
4.968	-6.73246506380033e-05
4.97	0.000209758594985465
4.972	3.48876059690701e-05
4.974	-0.000202457158514052
4.976	-4.66947004865589e-05
4.978	-7.44746022826606e-05
4.98	2.73868135330107e-05
4.982	0.0001092337363416
4.984	-7.94456754508239e-05
4.986	-9.31718109985144e-05
4.988	-0.000187413601394156
4.99	-5.81940670584329e-05
4.992	0.000114255292069779
4.994	-3.83751969218991e-05
4.996	-4.36213254580295e-05
4.998	-0.000242282626024639
5	-0.000154052067127088
5.002	7.73833036881887e-05
5.004	-2.85975181184111e-05
5.006	7.18795467480963e-05
5.008	-0.000149622027837492
5.01	-0.000302555246410619
5.012	-0.000119267468427018
5.014	-0.000210868839184325
5.016	9.44649610547465e-05
5.018	3.40436439166614e-05
5.02	-0.000116904854419967
5.022	0.00018210556178846
5.024	0.000104505814463671
5.026	-8.46223564882535e-05
5.028	-0.000324767563304105
5.03	-0.000629907081192806
5.032	-0.000436530483372986
5.034	-0.000430455183445548
5.036	2.46485181751149e-05
5.038	0.000148071735981734
5.04	5.19251676908704e-05
5.042	3.06610817205842e-05
5.044	-0.000246277464498211
5.046	-0.000144683308394292
5.048	4.6642927283091e-05
5.05	-1.65546057347353e-05
5.052	0.000112607420644867
5.054	5.08835447983506e-05
5.056	-0.000129260658593896
5.058	-8.78097218701301e-05
5.06	-8.53943782585362e-05
5.062	0.000242256412928958
5.064	0.00010565507253272
5.066	-6.40069143416323e-05
5.068	0.000102170168047471
5.07	-7.35653808476202e-05
5.072	0.00014262499386744
5.074	0.000281964673116331
5.076	4.11932757503367e-05
5.078	0.000138057731330415
5.08	1.62171317407733e-05
5.082	8.54415580230048e-05
5.084	0.000284092118837393
5.086	0.000167511624886562
5.088	0.000310667129958117
5.09	9.03371199188675e-05
5.092	-9.71864320510128e-05
5.094	0.000154592104229835
5.096	-3.27936076419056e-05
5.098	8.80673199374601e-05
5.1	6.05311054324437e-06
5.102	-0.000172246303159729
5.104	-0.000111321324154987
5.106	-0.000138499382081596
5.108	-3.95018963227113e-06
5.11	6.86923643722684e-05
5.112	-0.000165906171222888
5.114	-0.000165126392933481
5.116	-0.00022882041805667
5.118	-7.14422701832809e-05
5.12	4.0576656560318e-05
5.122	-5.28276343268952e-05
5.124	9.96568757180432e-05
5.126	-0.000319555549106484
5.128	-0.00018467849848989
5.13	0.000122004188004759
5.132	-3.67888720144113e-05
5.134	0.000203222852245062
5.136	-0.000126086444908368
5.138	-0.000179851786042821
5.14	-4.35645653733561e-05
5.142	-8.85340955956367e-05
5.144	0.000105633585439067
5.146	1.92486411017844e-05
5.148	-0.000343964414269162
5.15	-0.000159366951350549
5.152	-0.000274279496467326
5.154	3.05794008386573e-05
5.156	6.26285091478445e-05
5.158	-6.36981436644998e-05
5.16	-6.23403378270852e-05
5.162	-0.000328862890476338
5.164	-0.000146228132618
5.166	-1.63135302244406e-05
5.168	-5.7386296640704e-05
5.17	-8.84861888135564e-06
5.172	-0.000304935899024562
5.174	-0.000146154340236457
5.176	-4.33275432662398e-05
5.178	-7.54146102951571e-05
5.18	9.23835013897852e-05
5.182	-3.85323781681636e-05
5.184	-0.000190763077164576
5.186	-3.08277209674884e-05
5.188	-0.000173245126231499
5.19	0.000139140857259765
5.192	0.000158515372252189
5.194	-0.000235921187547559
5.196	-2.80288043134349e-05
5.198	-0.000275504072207243
5.2	3.90268297217291e-05
5.202	1.25205402551028e-05
5.204	-0.000157927967416682
5.206	3.02074243848609e-05
5.208	-0.000293548797204438
5.21	-0.000156635921125964
5.212	4.06439969011158e-05
5.214	-0.000152588443697856
5.216	-3.20884234152538e-05
5.218	-0.000141779000393984
5.22	-0.000280940464950495
5.222	1.4185051122348e-05
5.224	-4.69963047417975e-06
5.226	0.000184942359579801
5.228	-5.87543613091035e-05
5.23	-0.00024999747578672
5.232	-5.46472754350548e-05
5.234	-5.92906697037202e-05
5.236	0.000411628684880361
5.238	0.000229187744715553
5.24	-0.000448903610585108
5.242	-0.000427482299100966
5.244	-0.000620039215205327
5.246	-0.000292014115457733
5.248	4.17788357530215e-05
5.25	-1.22094978341501e-05
5.252	0.000158090967637371
5.254	-0.000111898979330939
5.256	-6.70127882066809e-05
5.258	8.45557457983654e-05
5.26	-4.90771086211576e-05
5.262	0.000102354734505855
5.264	-5.15547299602605e-05
5.266	-0.000192301495004492
5.268	1.28237840123832e-05
5.27	-0.00010393839698414
5.272	0.000141041307773609
5.274	-9.27536887782221e-06
5.276	-0.000147463516188742
5.278	5.00430749016463e-06
5.28	-9.24037252731074e-05
5.282	0.000114176835951181
5.284	0.000131419144643646
5.286	-6.81921523299099e-06
5.288	9.12783725801432e-05
5.29	-5.28542852194366e-05
5.292	5.96905062762903e-05
5.294	0.000290521021266308
5.296	5.79576608934913e-05
5.298	0.000203156817267797
5.3	3.45239505790346e-05
5.302	7.35181219126563e-06
5.304	0.00019436534922635
5.306	0.000109483789128723
5.308	0.000173798095774147
5.31	-4.42225868406252e-05
5.312	-0.000127389637118105
5.314	-2.95336890460395e-05
5.316	-0.00020349874561325
5.318	0.000142680474328291
5.32	-4.05621530400909e-06
5.322	-0.000123430287262343
5.324	-1.79028385837565e-05
5.326	-0.000297849708054952
5.328	-3.08665478158432e-05
5.33	0.000104505754316624
5.332	-0.000165590048998185
5.334	8.55548878946071e-05
5.336	-0.000201197018717695
5.338	-4.82540369293231e-05
5.34	2.87134250409085e-05
5.342	-8.67215183713368e-05
5.344	2.69173416093074e-06
5.346	-9.73285752482627e-05
5.348	-0.000193852960301669
5.35	-1.59991650401815e-05
5.352	-6.46462402240328e-05
5.354	5.57211544322882e-05
5.356	4.07242892992978e-05
5.358	1.32714743355658e-05
5.36	0.000206023723078187
5.362	-0.000254148283501794
5.364	-0.000400625721113963
5.366	-0.000394375250227899
5.368	-0.00060045779645542
5.37	-0.000184511595790177
5.372	-0.000233805266377247
5.374	-0.000115591598798138
5.376	0.000196803060457329
5.378	-0.00013318081713589
5.38	4.30358782295862e-05
5.382	-0.000192384737724813
5.384	-0.00011422381703805
5.386	7.15262211513819e-05
5.388	1.18184169507316e-05
5.39	0.000160732341290109
5.392	6.92474948450929e-06
5.394	-0.00019200381629564
5.396	-5.09692663259414e-05
5.398	-0.00012944803824965
5.4	0.000167828206693143
5.402	9.79120712132458e-05
5.404	-8.56369349195456e-05
5.406	-3.76727803368074e-05
5.408	-0.000200932029896923
5.41	2.73023020212524e-05
5.412	0.000195210478918193
5.414	-8.06803631252865e-05
5.416	6.67128810990117e-05
5.418	-0.0001941594205972
5.42	-7.24527222914332e-05
5.422	0.000152579119565455
5.424	4.48187813154447e-05
5.426	0.000137177280893971
5.428	-0.000115710983192458
5.43	-0.000243007089205132
5.432	-1.25151224801627e-05
5.434	-8.01254501569424e-05
5.436	0.000101115305556839
5.438	-5.55938838660957e-05
5.44	-0.00019663895102366
5.442	-0.000126817911899199
5.444	-0.000132772043406562
5.446	0.000101425560590447
5.448	0.000111746705745129
5.45	-0.000149553645427572
5.452	-0.000163235404261025
5.454	-0.000277391512728477
5.456	-7.50340277353536e-05
5.458	5.98962361457571e-05
5.46	-0.000280688997096776
5.462	4.40264059494957e-05
5.464	-0.000338191817017117
5.466	-0.000138058500930497
5.468	2.12236812369614e-05
5.47	-9.80640649782669e-05
5.472	-6.14431824189152e-05
5.474	-0.000186547580886621
5.476	-0.000302928146802107
5.478	-9.45236957988881e-05
5.48	-7.48634082056793e-05
5.482	0.000100447304378977
5.484	-7.11801571377136e-05
5.486	-0.000237703195196943
5.488	4.82351057976956e-05
5.49	-9.59794043469326e-05
5.492	0.00013775917721333
5.494	0.00011037596151608
5.496	-0.000180168164685435
5.498	7.56505494788988e-05
5.5	-0.000104443159124407
5.502	0.000241454619175659
5.504	0.000135163489312607
5.506	-0.000483661646708768
5.508	-0.000404670021583584
5.51	-0.000711007485553721
5.512	-0.000529019369311477
5.514	-4.86055666351031e-05
5.516	-4.80094341881788e-05
5.518	2.17155021599741e-05
5.52	-8.14836413456134e-05
5.522	-0.00027325037385585
5.524	-6.53234186987739e-05
5.526	-0.000109868275758832
5.528	6.1528172138747e-05
5.53	5.16793472779751e-05
5.532	-0.000132372615110748
5.534	-8.9889826455844e-05
5.536	-0.000124919306678062
5.538	4.02976591157825e-05
5.54	0.000149606545680857
5.542	-5.32638534603102e-05
5.544	8.08544142784502e-05
5.546	-0.000157777688585216
5.548	2.77951520491263e-05
5.55	9.2403435597782e-05
5.552	8.24963352803685e-05
5.554	0.000144258072672082
5.556	-8.72746038817127e-05
5.558	-0.000131655938238728
5.56	5.67717663997182e-05
5.562	-2.2810147594126e-05
5.564	0.000285018019177183
5.566	-8.97497570630744e-05
5.568	-0.000163995068222142
5.57	7.92277472890464e-05
5.572	-1.4143936991332e-05
5.574	8.54848287973614e-05
5.576	0.00015814872193163
5.578	-0.000204078863286119
5.58	-0.000147630398781832
5.582	-0.000192401159829639
5.584	-0.00010168450977457
5.586	6.74520273533975e-05
5.588	-0.000144247950169919
5.59	7.54186718304113e-05
5.592	-0.000246378354658265
5.594	-0.000210297592901621
5.596	7.04755808864955e-05
5.598	-5.77288425876844e-05
5.6	-6.15303264806564e-06
5.602	-0.000217233086925266
5.604	-0.000181855445849987
5.606	6.33255304518399e-05
5.608	-0.000152910756634773
5.61	3.05070479230948e-05
5.612	-3.77804876776243e-05
5.614	-0.000245562036873826
5.616	-8.31267925664621e-05
5.618	-0.000197230661126349
5.62	0.000100883928301378
5.622	3.74679706196669e-05
5.624	-0.000256833569155309
5.626	-0.000104635169395493
5.628	-0.000243921428543524
5.63	-0.000157024726878808
5.632	2.21983131422169e-05
5.634	-8.66978517457213e-05
5.636	-1.57570895455985e-05
5.638	-0.000231852606106849
5.64	-0.00025288513221307
5.642	8.00683446198107e-05
5.644	-6.39114478070254e-05
5.646	6.43659495390774e-05
5.648	-8.3347970783203e-05
5.65	-0.00028393864216464
5.652	-8.83393927688975e-05
5.654	-9.32930170633761e-05
5.656	7.41819136732451e-05
5.658	-9.31714216563782e-06
5.66	-0.000139229599230934
5.662	-2.7925583642019e-05
5.664	-9.31319523229827e-05
5.666	0.000277062992250222
5.668	0.000249037675780869
5.67	-0.000459892837988995
5.672	-0.00056602417936403
5.674	-0.000684457586001758
5.676	-0.000511556131289072
5.678	-9.60819246248698e-05
5.68	-8.11417715631635e-05
5.682	6.52870802605881e-05
5.684	-6.84346350441105e-05
5.686	-0.000157967428454907
5.688	1.03904779629284e-05
5.69	3.06019141370391e-05
5.692	0.000162593866318346
5.694	-7.48739768926191e-05
5.696	-4.91117659529076e-05
5.698	-8.38275506910125e-05
5.7	-0.000188368885739307
5.702	9.91376154731139e-05
5.704	0.000126971150840815
5.706	-0.000169479429339225
5.708	3.22886824525401e-05
5.71	-0.000131386127985424
5.712	3.36743934021403e-05
5.714	0.00014637594739113
5.716	-1.763738550432e-05
5.718	0.00016456576913699
5.72	-7.55841742649399e-05
5.722	-3.88128570150755e-05
5.724	0.000155907863205556
5.726	2.2226188871441e-05
5.728	0.000314995235119311
5.73	-1.78479928638835e-05
5.732	-2.06024922272031e-05
5.734	0.000110050490150969
5.736	6.97534852208729e-05
5.738	0.00018297890006678
5.74	6.73333754027018e-06
5.742	-7.79857753825727e-05
5.744	-8.42997728085376e-06
5.746	-0.000132181221146096
5.748	5.86110949380218e-05
5.75	0.000123084508672637
5.752	-0.000103880375606789
5.754	1.17226884043055e-05
5.756	-0.000283047630946312
5.758	-1.00482822592744e-06
5.76	0.000182506963738206
5.762	-0.000132826057836688
5.764	-2.59501835693021e-05
5.766	-0.000243047012103564
5.768	-9.07442994734709e-05
5.77	7.22942484809837e-05
5.772	-0.000109241695529418
5.774	6.04441648689945e-05
5.776	-7.49810103569922e-05
5.778	-0.000188587029309742
5.78	-8.47590961964749e-05
5.782	-0.000234578300074196
5.784	0.000132694850047754
5.786	2.05333305297034e-05
5.788	-0.000140037036118739
5.79	-1.11927115837476e-05
5.792	-0.000228951412917066
5.794	-1.06562784235086e-05
5.796	0.000112158186675415
5.798	-0.000157497666498339
5.8	-2.42380394906259e-05
5.802	-0.000301108339132348
5.804	-0.000177311483698528
5.806	2.35042583294394e-05
5.808	-0.000118822200374072
5.81	2.13253061913949e-05
5.812	-0.000202838554422983
5.814	-0.000205023983526185
5.816	-1.07321714320494e-05
5.818	-5.91200662314743e-05
5.82	0.000119226385245529
5.822	-0.000157119197523743
5.824	-0.000322179369325432
5.826	-5.46421427880063e-05
5.828	-0.000229996673346958
5.83	7.62197014576837e-05
5.832	0.000195947492429545
5.834	9.91213401015776e-05
5.836	0.000148011048141633
5.838	-0.000391516979244217
5.84	-0.000394174265695662
5.842	-0.000445874729942998
5.844	-0.00036346853270546
5.846	-0.000139372486527172
5.848	-0.000230723147224818
5.85	-0.000171649615407393
5.852	0.000215045662463331
5.854	8.18335661270975e-06
5.856	0.000160375494034933
5.858	-7.59297850896324e-05
5.86	-0.000156495596534252
5.862	0.000163794669466563
5.864	-2.74279302116638e-05
5.866	9.02447321055514e-05
5.868	-6.67165637728819e-05
5.87	-0.000170941533457624
5.872	4.43442207638117e-05
5.874	-0.000140429235987153
5.876	0.000138621206008589
5.878	0.000144663083563431
5.88	-7.65275494785787e-05
5.882	9.27508669398264e-05
5.884	-7.34390306349407e-05
5.886	-9.19378383799787e-07
5.888	0.000189138321587979
5.89	1.72844726352795e-06
5.892	0.000189448333983228
5.894	-4.3044364396151e-05
5.896	-8.93976552380069e-05
5.898	0.000272692762745479
5.9	0.000231733273911989
5.902	0.000289781756970912
5.904	3.20545370128908e-05
5.906	-8.44031863669577e-05
5.908	4.11676575588283e-05
5.91	-0.000100325677216509
5.912	4.57241979025278e-05
5.914	0.000117261901387631
5.916	-0.000170146678512556
5.918	4.10989146192183e-06
5.92	-0.000350690556748692
5.922	-5.27644896021085e-05
5.924	0.000155809344457354
5.926	-0.000159346217754219
5.928	-5.90793085227122e-05
5.93	-0.000245934840142644
5.932	-0.00010100373601622
5.934	7.10600182997685e-05
5.936	-1.89855210053593e-05
5.938	2.55973503400319e-06
5.94	-0.000128259526479415
5.942	-0.000188274421450735
5.944	1.39188760319305e-05
5.946	-0.00012909180855476
5.948	1.29781527923543e-07
5.95	-6.68202962990441e-05
5.952	-0.000282354304613776
5.954	-0.000167263159667419
5.956	-0.000223178412310513
5.958	0.000165175944487205
5.96	5.75607379914654e-06
5.962	-0.000135556678040893
5.964	3.28476167588151e-06
5.966	-0.000116219102765527
5.968	1.36249313184938e-06
5.97	8.73536687636235e-05
5.972	-0.000113578628259921
5.974	1.5855373852718e-05
5.976	-0.000272484091237181
5.978	-0.000206568473952941
5.98	2.92177632865028e-05
5.982	1.97682231605647e-05
5.984	-3.22525570818454e-05
5.986	-0.000126919215772868
5.988	-0.00021560500155072
5.99	-7.58721684482687e-05
5.992	-0.000194308461922376
5.994	-9.69807383869204e-06
5.996	2.94273647090172e-05
5.998	-0.000228291394294119
6	-0.000138951153266415
6.002	-0.000161302729629273
6.004	4.14584852659706e-05
6.006	-9.88038021797609e-06
6.008	-0.000191818714305992
6.01	-0.000141808893468726
6.012	-9.40901067401968e-05
6.014	3.27071672889167e-05
6.016	5.13987847625126e-05
6.018	-0.00017753186813646
6.02	8.10070745530973e-05
6.022	-0.000228107798103886
6.024	-0.000110988896739632
6.026	0.000165678382570156
6.028	3.58905895235445e-05
6.03	0.000323510656634327
6.032	0.000109174320675501
6.034	-0.000404570454207605
6.036	-0.000461375578894777
6.038	-0.000631571596221859
6.04	-0.000176279722573671
6.042	-1.01645995835424e-05
6.044	-7.75117100733721e-05
6.046	-6.43424923581916e-05
6.048	-0.000166606008225534
6.05	8.73508542417872e-05
6.052	0.000204996238397939
6.054	-0.000121622369353446
6.056	3.12422673778932e-05
6.058	-0.000177849653218093
6.06	-0.000101969050073649
6.062	9.38386992176522e-05
6.064	-8.31971831804729e-06
6.066	7.41548158466791e-05
6.068	-0.000184958094516387
6.07	-0.0001235373464933
6.072	8.25956424496296e-05
6.074	-3.9353439424328e-05
6.076	0.000241074764608175
6.078	0.000184891202749817
6.08	-0.000112050934303575
6.082	8.07064696518615e-05
6.084	-2.21472032081735e-05
6.086	0.00026219266909634
6.088	0.000167305873570501
6.09	-3.65551397154532e-05
6.092	8.91650122835947e-05
6.094	-1.84238481703252e-05
6.096	0.000117005831809416
6.098	0.000314994582252915
6.1	-9.59582081966864e-05
6.102	-2.05467169372829e-05
6.104	-8.58003344332318e-05
6.106	-4.39633440431887e-05
6.108	0.000104974188943129
6.11	4.53515321881797e-06
6.112	7.9296412559699e-05
6.114	-0.000180670700611083
6.116	-0.000377833495113607
6.118	-8.44050466611263e-05
6.12	-0.000100819044067417
6.122	0.000136635723441648
6.124	3.33216019575798e-05
6.126	-0.000193063521705606
6.128	-0.000124105584191054
6.13	-0.000265443642513174
6.132	-1.18059970248965e-05
6.134	0.000104688167721708
6.136	-0.000190306137576573
6.138	-2.48602140268105e-05
6.14	-0.000129524679915428
6.142	-6.32974603516448e-06
6.144	0.000128036693041219
6.146	-9.43891693219581e-05
6.148	8.09347575046796e-05
6.15	-0.00011183170662179
6.152	-0.000325220482860799
6.154	1.46877235493794e-05
6.156	-3.99162623720004e-05
6.158	2.59930754251525e-05
6.16	-0.000108757272146628
6.162	-0.000351759228869079
6.164	-9.61928166213693e-05
6.166	-0.00018604850765089
6.168	7.78322340096207e-05
6.17	-0.000126908686795747
6.172	-0.000291749398689321
6.174	-0.000128373127770231
6.176	-0.000217881662432602
6.178	-5.69267970365524e-06
6.18	2.48783080293399e-05
6.182	-0.00012428246560299
6.184	2.26299495002579e-06
6.186	-0.000263947022901515
6.188	-0.000120486727554489
6.19	0.000103601969209287
6.192	-0.000130779844365269
6.194	1.96495833339077e-05
6.196	-0.000174558841441898
6.198	-0.000302133425375646
6.2	9.63824760167629e-05
6.202	0.000112383503469483
6.204	0.000334785101920212
6.206	9.60573833848375e-05
6.208	-0.000499590966935584
6.21	-0.000456606340203183
6.212	-0.000577497650107245
6.214	-0.000297749684979022
6.216	-7.12300774345383e-05
6.218	-0.000148815231505449
6.22	1.65217916304334e-05
6.222	-9.94859268915616e-05
6.224	0.000134383158158518
6.226	8.00135966078766e-05
6.228	-2.95984768926498e-05
6.23	1.3345345468409e-05
6.232	-0.000134333343039986
6.234	-3.23503090089359e-05
6.236	0.000121806311587844
6.238	8.25885074051384e-05
6.24	0.000179857242216776
6.242	-9.57956463670575e-05
6.244	-0.000199781763711243
6.246	4.66172601683805e-05
6.248	-2.78700418243697e-06
6.25	0.000162237434173771
6.252	0.000186989317849947
6.254	-3.47962921419499e-05
6.256	8.6970620361017e-05
6.258	-0.000116857008339744
6.26	0.000178100554959985
6.262	0.000214921036073001
6.264	-7.16101713002993e-06
6.266	7.39695267486898e-05
6.268	-0.000175689188219915
6.27	3.02638957685913e-05
6.272	0.000233096946504996
6.274	-1.00449773338911e-05
6.276	2.67473221846959e-05
6.278	-0.000137831563813975
6.28	-0.000196234255340199
6.282	-6.54248409082896e-05
6.284	1.46035985372709e-05
6.286	9.89103199295086e-05
6.288	-0.000142367513228255
6.29	-0.000174058075090296
6.292	-8.64213983305385e-05
6.294	-0.0001713979723509
6.296	9.94750701368932e-05
6.298	-3.40898074432159e-05
6.3	-0.000201775563741535
6.302	-4.91727537448505e-05
6.304	-0.000191441981028309
6.306	4.76525317282789e-05
6.308	9.79348832496626e-05
6.31	-2.59127566548511e-05
6.312	8.02693181971981e-05
6.314	-0.000287810915353787
6.316	-0.00010615919265375
6.318	8.01011164749269e-05
6.32	-3.89478758083183e-05
6.322	2.33896002837806e-05
6.324	-0.000182359187376401
6.326	-0.00011618686839796
6.328	0.000238780917206537
6.33	0.00022169041205375
6.332	-7.41131062478838e-05
6.334	-0.000431027149369898
6.336	-0.00072418773758264
6.338	-0.000458928875623613
6.34	-0.000225434916394241
6.342	1.03060893435936e-05
6.344	0.000107815200616498
6.346	-0.000124101069132175
6.348	-1.37180663449992e-06
6.35	-0.000214277939916503
6.352	5.54315167761346e-05
6.354	0.000167785585791608
6.356	2.33085698125784e-05
6.358	8.60398954580315e-05
6.36	-0.000238655419135457
6.362	-0.000116878084880218
6.364	0.000131525382156652
6.366	-5.39230273165654e-05
6.368	9.30316526789748e-05
6.37	-0.000199554172499741
6.372	-0.000148575749274169
6.374	1.60655064868924e-05
6.376	-7.4562073780302e-06
6.378	0.000115173373552228
6.38	6.76939726024712e-05
6.382	-0.000113056885669442
6.384	3.77940707569849e-05
6.386	-0.000129044236574289
6.388	8.49084665544354e-05
6.39	0.000174199040002378
6.392	-3.57255148907814e-05
6.394	8.50683917527257e-05
6.396	-6.65225521407028e-05
6.398	1.03438856786759e-05
6.4	0.00021913738187193
6.402	6.40340176219421e-05
6.404	0.000167657447666569
6.406	-7.35969818092966e-05
6.408	-0.000154273547079053
6.41	8.88359376005999e-05
6.412	-0.000111990389834637
6.414	7.02185442750764e-05
6.416	-0.000119954568587402
6.418	-0.000203259812229861
6.42	-1.81913157627511e-05
6.422	-0.000139837967329876
6.424	6.61485780524246e-05
6.426	-4.83108189232321e-05
6.428	-0.000240403482717062
6.43	-0.000186865340390828
6.432	-0.000253126947347741
6.434	2.98108629274013e-05
6.436	1.98198802711779e-05
6.438	-0.000189971767849667
6.44	-2.79813596250888e-05
6.442	-0.000286626870512715
6.444	-8.25424425537818e-05
6.446	7.03754113640109e-05
6.448	-7.94529280868111e-05
6.45	6.89730882134922e-05
6.452	-0.000125274882914267
6.454	-0.000337801530493199
6.456	6.44821314891474e-05
6.458	-2.78491996050466e-05
6.46	0.000126443917062413
6.462	6.88833552211427e-05
6.464	-8.86061340849125e-05
6.466	0.000242552705118088
6.468	-0.000231883378787968
6.47	-0.000353204001863724
6.472	-0.000504626460852033
6.474	-0.000565075968345534
6.476	-0.000343819672670114
6.478	-0.000309039994852664
6.48	5.12616042722213e-05
6.482	0.000195685900522561
6.484	3.58472479884133e-05
6.486	-3.54600177630611e-05
6.488	-0.000247290057358443
6.49	-3.69477836134463e-05
6.492	9.6318441420702e-05
6.494	-4.85148082597297e-05
6.496	0.000163654354486773
6.498	-8.72958286837386e-05
6.5	-0.000115083777324717
6.502	9.78211273554791e-05
6.504	-4.24472040291795e-05
6.506	0.000229941296646462
6.508	8.4308153801239e-05
6.51	-2.42252868650559e-05
6.512	0.000130897056789889
6.514	5.58193644717963e-05
6.516	0.000291634910969293
6.518	0.000165286653506164
6.52	-2.42718556679596e-05
6.522	0.000185523011372807
6.524	-3.30760432044078e-05
6.526	6.89095669960364e-05
6.528	0.000216254614923021
6.53	-6.11832975046062e-05
6.532	0.000115201215816698
6.534	-0.000106391593325737
6.536	-8.35777984552471e-05
6.538	0.00017682566748441
6.54	-2.96690316923809e-05
6.542	9.63793643887281e-05
6.544	-9.02303983092873e-05
6.546	-0.000251284016788169
6.548	-3.43448749985518e-05
6.55	-0.000163502280014937
6.552	3.62410435621222e-05
6.554	6.73223627692049e-06
6.556	-0.00027580891047591
6.558	-3.55978518027934e-06
6.56	-0.000210908805144547
6.562	4.38218716662189e-05
6.564	0.000123878681810101
6.566	-0.000167628382060582
6.568	-3.53620717842242e-05
6.57	-0.000246201407124508
6.572	-6.08420901405302e-05
6.574	3.1359367716775e-05
6.576	-0.000183161284556678
6.578	9.62759245392888e-07
6.58	-0.000197328499707509
6.582	-0.00016882980477262
6.584	-1.92619494027814e-06
6.586	-2.27912841574497e-05
6.588	3.60042359644329e-05
6.59	-4.10531342484719e-05
6.592	-0.000208215025321116
6.594	-1.41665096141248e-05
6.596	-0.000104168656245923
6.598	3.19249580026814e-05
6.6	3.04358212270216e-05
6.602	-0.000114051762926327
6.604	-4.62335713158503e-05
6.606	-0.000256744455654287
6.608	3.221207349936e-05
6.61	8.54294040040768e-05
6.612	-0.000121488061112275
6.614	3.50101101105018e-05
6.616	-0.000276258214247074
6.618	-5.51362238542586e-06
6.62	0.000361699482030865
6.622	0.000149867455184673
6.624	-7.74209790658856e-05
6.626	-0.000611821311852772
6.628	-0.000611282597620953
6.63	-0.000367343012475381
6.632	-0.000196038393828346
6.634	0.000111163130184052
6.636	-1.87193778749181e-05
6.638	-0.000105744169389738
6.64	2.76475970609134e-05
6.642	-5.40530132624131e-05
6.644	7.1142637170278e-05
6.646	6.91470016331576e-05
6.648	-9.96356480872805e-05
6.65	6.66497673694907e-06
6.652	-0.000188583003605545
6.654	-5.30543521984758e-05
6.656	0.000171160210018109
6.658	-1.77657156505163e-05
6.66	0.000138607741485452
6.662	-0.000150337220037527
6.664	-0.000201250765669754
6.666	0.000122306148658581
6.668	1.41243437021516e-05
6.67	0.000161639479092241
6.672	3.59905757185202e-05
6.674	-3.81367350321662e-05
6.676	4.60435194574145e-05
6.678	-3.3741125245855e-06
6.68	0.000265975357208881
6.682	0.000124859592530125
6.684	-2.09347147050654e-05
6.686	0.000109079364508875
6.688	-5.73785473277279e-05
6.69	9.28455343158906e-05
6.692	0.000160399508829778
6.694	-8.23364709641528e-05
6.696	4.79053872137413e-05
6.698	-0.000193817345383976
6.7	-0.000121158870041404
6.702	2.62449557085651e-05
6.704	-0.000106335142711981
6.706	6.0444395924516e-05
6.708	-9.50981302463224e-05
6.71	-0.000259849214859424
6.712	-4.75129782929608e-05
6.714	-0.000150793227116953
6.716	5.19660051612955e-05
6.718	-2.84381733064913e-05
6.72	-0.000239174457656337
6.722	-0.000147810172267667
6.724	-0.000110454020815328
6.726	9.11580881025244e-06
6.728	4.01316914815476e-05
6.73	1.71039735816232e-06
6.732	-0.000107091549529449
6.734	-0.000191212350222685
6.736	-8.2186285189065e-06
6.738	0.000225402509809838
6.74	0.000207645017831828
6.742	0.000131535299001436
6.744	-0.000628994116565283
6.746	-0.000700793953631019
6.748	-0.000371071377603415
6.75	-0.000394463131945063
6.752	4.4520939681255e-05
6.754	-1.86392541748878e-05
6.756	-0.000166819372712735
6.758	3.3898133412313e-05
6.76	7.3578890542048e-05
6.762	-3.07082909870406e-05
6.764	-6.11884033788844e-05
6.766	-0.000360145316200728
6.768	-4.00851594984048e-05
6.77	-0.000162597264203334
6.772	0.000177855304840424
6.774	9.99382351028676e-05
6.776	-0.000122523480376551
6.778	3.43491780296693e-05
6.78	-0.000155873679782491
6.782	8.88104122438911e-05
6.784	0.000226806426603383
6.786	-3.7847775285089e-05
6.788	0.000143991616285058
6.79	-3.14078349262475e-05
6.792	-0.000108454808578278
6.794	0.000124276578551095
6.796	0.000120440098255697
6.798	0.000277931282283483
6.8	0.000115759559275213
6.802	-2.99255236884894e-05
6.804	0.000103876535848851
6.806	-2.44892125865408e-05
6.808	0.000202336731608889
6.81	0.000145729293663359
6.812	-0.000138145626962204
6.814	8.18052121217791e-05
6.816	-0.000174010238473242
6.818	7.14307379393794e-05
6.82	8.54589191915181e-05
6.822	-0.000115031102734793
6.824	0.000136881759885328
6.826	-0.000198973634595375
6.828	-0.000147030514494768
6.83	0.000174819955247207
6.832	-0.000134809586686324
6.834	5.94343373301436e-05
6.836	-0.000232429517428112
6.838	-0.000174133837968344
6.84	-5.47856300078408e-05
6.842	-5.43164256791395e-05
6.844	8.38001265962947e-05
6.846	-0.000173132243395279
6.848	-0.000140848521120494
6.85	6.47398031662503e-05
6.852	-8.61075270291609e-05
6.854	0.000194295869214798
6.856	7.83764898800559e-05
6.858	-1.35262223284699e-05
6.86	0.000126332631965896
6.862	0.000144507299099717
6.864	-6.61131595417925e-05
6.866	-0.000353968213687023
6.868	-0.000604980851710818
6.87	-0.00051947960963716
6.872	-0.000376388667782939
6.874	-0.000114660834465036
6.876	2.86121586149631e-05
6.878	-6.36141500736886e-06
6.88	6.27816940573056e-05
6.882	-0.000180957570641373
6.884	-0.000188678496156388
6.886	2.49205846606282e-05
6.888	-6.92394323043029e-05
6.89	0.000133585648606335
6.892	2.37734527599784e-05
6.894	-0.000246670408575505
6.896	3.12109630254126e-05
6.898	-8.59038377295523e-05
6.9	0.000159850263152133
6.902	0.000157769544229293
6.904	-3.32520844171473e-05
6.906	6.77431808469959e-05
6.908	-4.87861694009564e-05
6.91	5.79492972954797e-05
6.912	0.000169008691062323
6.914	8.11753083085787e-05
6.916	0.00015901404510695
6.918	-0.00013729219838137
6.92	-8.4683349967419e-05
6.922	0.000211181658237421
6.924	-3.86914448248137e-05
6.926	0.000250988558500862
6.928	-4.77469929267441e-05
6.93	-0.000250441722934974
6.932	6.08808810610368e-05
6.934	-2.21085221815752e-05
6.936	0.000117696905323437
6.938	-2.8886661392599e-05
6.94	-0.000134400319123668
6.942	4.40299643396977e-05
6.944	-0.000178358608250627
6.946	1.66160786395947e-05
6.948	7.12743773278556e-05
6.95	-4.31921466660577e-05
6.952	-7.0754217521326e-05
6.954	-0.000167552868765351
6.956	-3.41807016220509e-05
6.958	0.000124750568803532
6.96	-4.19836670204648e-05
6.962	7.74562641612844e-05
6.964	-0.000191323579184628
6.966	-0.000272037193986004
6.968	0.000133958153622776
6.97	8.97666136609824e-06
6.972	0.000111161747871079
6.974	-7.47787280353772e-05
6.976	-0.00028696245195865
6.978	7.55214374094482e-05
6.98	0.000136862786392123
6.982	4.31439569299664e-05
6.984	-0.000465968323603551
6.986	-0.000705622928851181
6.988	-0.000386044210149811
6.99	-0.000335065536402091
6.992	-9.2434380315032e-06
6.994	6.92540524940471e-05
6.996	-0.000106702279570098
6.998	-4.1771772480418e-05
7	-0.000301626862435789
7.002	-0.000133354217066451
7.004	7.02993570980933e-05
7.006	-6.47019722442066e-06
7.008	0.000187982787668436
7.01	-1.72899304703924e-05
7.012	-0.00014548313643043
7.014	8.95777736981558e-05
7.016	-2.87765133869462e-05
7.018	0.000243441255484206
7.02	0.00017981916597048
7.022	-0.000130640266824489
7.024	-9.17741418147564e-06
7.026	-1.80757115248524e-05
7.028	5.69137442321827e-05
7.03	0.000124331359770978
7.032	-2.54203826049551e-05
7.034	2.75802110953404e-05
7.036	-0.000152848031243128
7.038	4.20385998728936e-05
7.04	0.000202514814555138
7.042	-5.80196631000787e-05
7.044	0.000234542184791406
7.046	-0.000103619959369141
7.048	-0.000169294713744916
7.05	0.00012306148579885
7.052	-4.52348202631149e-05
7.054	0.000136901908893406
7.056	-0.000129618400837353
7.058	-0.000211067784962119
7.06	-4.04702904267483e-06
7.062	-7.52385724604909e-05
7.064	0.000158724456765767
7.066	0.00014775554342829
7.068	-0.000262642722587408
7.07	-8.81635018725433e-05
7.072	-0.000219180823262723
7.074	4.2395139438366e-05
7.076	0.000102144374081202
7.078	-6.46103747638601e-05
7.08	-3.02674717361461e-05
7.082	-0.00032783270927532
7.084	-0.000126022057096195
7.086	2.1070214203713e-05
7.088	-8.6211816651804e-05
7.09	3.13031019078933e-05
7.092	-0.000243694645332028
7.094	-0.00011479731483276
7.096	-2.90990166463934e-05
7.098	-5.82021539543126e-05
7.1	6.93297711886341e-05
7.102	-0.000168001163820443
7.104	-0.000323793258885354
7.106	-0.000114543497982215
7.108	-0.000143045564937987
7.11	0.000145008620856475
7.112	0.000150704121887931
7.114	-0.000161356132294656
7.116	-6.25747968454893e-05
7.118	-0.000133017651879871
7.12	4.25750035898584e-05
7.122	7.70061575517262e-05
7.124	-3.61614501485143e-05
7.126	-0.000113216379219895
7.128	-0.000250328860465887
7.13	-0.000113641001392213
7.132	7.57413331217585e-05
7.134	-9.51232301512782e-05
7.136	4.40885387891967e-05
7.138	-0.000148277905082986
7.14	-0.000166594149791323
7.142	-1.6506184055722e-05
7.144	-2.41080367440602e-05
7.146	3.53979510271436e-05
7.148	2.28764186711787e-05
7.15	-0.000228446473739527
7.152	-8.3286066451362e-05
7.154	-0.000118259330759155
7.156	9.21842732598022e-05
7.158	2.36491022528182e-05
7.16	-4.03684669367458e-05
7.162	-6.53495159028929e-05
7.164	-0.000237258174010125
7.166	-8.18109553377293e-05
7.168	0.000145773119949966
7.17	-6.17160326886799e-05
7.172	-4.15780024908017e-06
7.174	-0.000244971942248834
7.176	-8.12211963021132e-05
7.178	0.000247787204185033
7.18	0.0002479662228074
7.182	0.00017081145447563
7.184	-0.000504953967817224
7.186	-0.00063950024178899
7.188	-0.000424861248311666
7.19	-0.000365858174607106
7.192	4.35492672370096e-05
7.194	3.18222903659649e-05
7.196	-0.000157390874342874
7.198	-5.93717874675754e-05
7.2	-0.00018642779815934
7.202	0.000133059466363737
7.204	8.01755909479397e-05
7.206	-1.35082474328257e-05
7.208	8.88111180429679e-07
7.21	-0.000175932814496874
7.212	2.74658988940814e-05
7.214	0.000141591109958933
7.216	8.12012225780798e-06
7.218	5.79019463748615e-05
7.22	-9.61554297089085e-06
7.222	3.06019485918919e-05
7.224	0.000168392845051735
7.226	9.79859278143606e-05
7.228	0.000321712621509218
7.23	8.92343348010716e-05
7.232	-0.000129635372582202
7.234	5.64544168102204e-05
7.236	5.38827131869434e-05
7.238	0.000224985887173826
7.24	0.000149608980324153
7.242	-0.000159834736783987
7.244	5.97531435535595e-05
7.246	-0.000123051511727237
7.248	-4.79525935729252e-05
7.25	0.000134779970867947
7.252	-5.18059016824564e-05
7.254	0.000104703563612256
7.256	-0.000229729493816352
7.258	-0.000163627558496683
7.26	0.000141036443971411
7.262	-0.000119498906871353
7.264	8.18959037635393e-05
7.266	-0.000173917283525732
7.268	-0.000166406352977141
7.27	5.59967316353036e-06
7.272	-6.2654841595134e-05
7.274	9.40484869388756e-05
7.276	-3.21558274075367e-05
7.278	-0.000231286558080672
7.28	-7.52910571211058e-05
7.282	-0.000139680826943896
7.284	2.42246147298377e-05
7.286	-3.82037739807803e-06
7.288	-0.000275104705901592
7.29	-4.76427545513704e-05
7.292	-0.00027373105057902
7.294	-4.26191324944024e-05
7.296	3.26956910972865e-05
7.298	-0.000125218875716153
7.3	-5.42956665433842e-05
7.302	-0.00026852576793684
7.304	-0.000270013533799719
7.306	4.86537155814647e-05
7.308	-0.000109821165234512
7.31	-4.77068253148132e-05
7.312	-0.000137056607780743
7.314	-0.000197315875960803
7.316	3.66633516068259e-05
7.318	-0.000127078617760793
7.32	0.000135651997155457
7.322	-4.89603784314019e-06
7.324	-0.000105667074534437
7.326	-6.03611222990267e-05
7.328	-0.000170508039841274
7.33	4.1356581476692e-05
7.332	5.97855561211662e-05
7.334	-8.99952942524985e-05
7.336	-5.09344614817966e-05
7.338	-0.000203657210202018
7.34	-9.92336142285793e-06
7.342	0.000143074496968057
7.344	-5.78929836373835e-05
7.346	3.62133884600428e-05
7.348	1.49268332067891e-05
7.35	6.95431485634676e-05
7.352	-4.31577718105136e-05
7.354	-0.000509953554425598
7.356	-0.000408339618583895
7.358	-0.000506629437443529
7.36	-0.000378432423501629
7.362	-7.71002066403311e-05
7.364	-0.00017089013359862
7.366	-7.53124667205837e-06
7.368	9.65232703344105e-05
7.37	-0.000157378463760955
7.372	-6.76014328179039e-05
7.374	-0.000152427540230729
7.376	5.73947756888512e-05
7.378	0.00022536328892376
7.38	-2.94420451012431e-05
7.382	4.82812641069622e-05
7.384	-0.000197121247388573
7.386	-3.61625527659151e-05
7.388	0.000165607028765635
7.39	2.60865344705078e-05
7.392	9.24924828361977e-05
7.394	-5.50780252382525e-05
7.396	-0.000146685788772913
7.398	3.92722159196464e-05
7.4	1.01333446022688e-05
7.402	0.000172200670590506
7.404	8.61664178959063e-05
7.406	-0.000147811562098107
7.408	6.5076957676212e-06
7.41	-6.2716942700819e-05
7.412	0.000113589091482145
7.414	0.00015804399424547
7.416	6.27334286311677e-05
7.418	3.47958728055671e-05
7.42	-4.26931004940455e-05
7.422	-0.000106894309770704
7.424	0.000130195280277711
7.426	-0.000175144271825696
7.428	1.9988160582034e-05
7.43	-0.000323192323922738
7.432	-0.000132731970490369
7.434	0.000109503987232325
7.436	-0.00016932216368152
7.438	6.12162836490364e-05
7.44	-6.90467317066843e-05
7.442	-0.000225801922547228
7.444	-3.27261556576886e-05
7.446	-0.000137195605654528
7.448	0.000110128584857328
7.45	4.2090642639237e-05
7.452	-0.000264138810914611
7.454	-8.30582506705897e-05
7.456	-0.000158836915941915
7.458	-5.44393021850749e-05
7.46	3.8621931230008e-05
7.462	-9.20294056790286e-05
7.464	-2.60862968378299e-05
7.466	-0.000267691253637355
7.468	-0.000135999322777093
7.47	8.16339939008936e-05
7.472	-4.07079266127428e-05
7.474	9.4945465710479e-05
7.476	-0.000240869494571781
7.478	-0.000275391600798799
7.48	0.000130380280719318
7.482	-5.46689913969806e-05
7.484	0.000170498572338038
7.486	-2.4211121191897e-05
7.488	-0.00019353216603816
7.49	-8.83388290772964e-05
7.492	-4.90165266340107e-05
7.494	3.47382409400532e-05
7.496	0.00011349745688443
7.498	-3.37662981882915e-05
7.5	0.000224335755532677
7.502	-0.000224321227784915
7.504	-0.00041365474858282
7.506	-0.000489921105832824
7.508	-0.00055159124340948
7.51	-0.000293109407401365
7.512	-0.000353533992337426
7.514	-0.000108978044964603
7.516	9.6836482722818e-05
7.518	-1.08263557088901e-05
7.52	8.78247045613853e-05
7.522	-4.64515413907541e-05
7.524	-0.000219753148958444
7.526	1.03840890434802e-05
7.528	-0.000116991466450019
7.53	0.000157401459847378
7.532	0.000146999693606601
7.534	-0.000178862446288899
7.536	-5.0787610312392e-05
7.538	-0.000165987456720415
7.54	0.000158786103384086
7.542	0.00027249655082078
7.544	-0.000139792803371483
7.546	2.6477609558446e-05
7.548	-0.000127121942927323
7.55	5.83775045495119e-05
7.552	0.000153382370700238
7.554	3.81006656139305e-05
7.556	0.000127481184474382
7.558	-3.71591627782246e-05
7.56	-6.2264636689117e-05
7.562	0.000231041838667294
7.564	5.24798841855764e-05
7.566	0.000213731319958084
7.568	2.87651247592095e-05
7.57	-0.0001467346982895
7.572	5.7686389301011e-05
7.574	7.26898884958834e-05
7.576	0.000213000232259951
7.578	9.43090622985057e-05
7.58	-2.82386135426816e-05
7.582	8.70637781498566e-05
7.584	-0.000209399235068832
7.586	7.12874487203262e-05
7.588	7.20523794986546e-05
7.59	-7.88875488421964e-05
7.592	-4.96043116278864e-05
7.594	-0.000232328783953878
7.596	-8.15166199024327e-05
7.598	0.000142602501308082
7.6	1.00830719445311e-05
7.602	0.000401491628534987
7.604	-0.000286243720454011
7.606	-0.00073718079101909
7.608	-0.000682237025644031
7.61	-0.000735354131419137
7.612	-0.000307076613263977
7.614	-0.000140641226365399
7.616	-0.000173154641775824
7.618	-1.44008087402643e-05
7.62	-7.65109160756917e-05
7.622	0.000189765285353754
7.624	7.91719596173292e-05
7.626	-0.00013072964826491
7.628	9.6041745072955e-05
7.63	-0.000127824843524681
7.632	2.9953663201286e-05
7.634	0.000158503199094442
7.636	-1.79837170194314e-05
7.638	1.66677076519777e-05
7.64	-0.000169045592106705
7.642	-6.85955265529343e-05
7.644	0.000140460495834404
7.646	3.12998224957035e-06
7.648	0.000140767954945036
7.65	-0.0001908768306685
7.652	-6.03996744818791e-05
7.654	6.82366384432491e-05
7.656	0.000107434632516388
7.658	0.000128574051991118
7.66	0.000144931820984285
7.662	-6.92000561418203e-05
7.664	-2.75921766789704e-05
7.666	-3.49789538296039e-05
7.668	0.000199904929762981
7.67	0.000121730440604886
7.672	0.000106706434826787
7.674	1.82584398265225e-05
7.676	-8.36384186726935e-05
7.678	-7.41909491694914e-05
7.68	0.000245417466351276
7.682	-4.08184061760629e-05
7.684	-2.22496431266164e-05
7.686	-0.000248019574870941
7.688	-0.000145702864658951
7.69	0.000168860837520986
7.692	5.23801785411389e-05
7.694	0.000352315891245489
7.696	-1.20539731213117e-05
7.698	-0.000747368881068881
7.7	-0.000594605580561115
7.702	-0.000701331276429717
7.704	-0.000287624450839565
7.706	-8.98178923072376e-05
7.708	-0.000222664134205508
7.71	-0.000127956410043442
7.712	-0.000208769027834233
7.714	7.85043291947314e-05
7.716	9.66973557625874e-05
7.718	-9.07622451098927e-05
7.72	-3.37866236266223e-05
7.722	-0.000175738633004386
7.724	-4.88469583340932e-05
7.726	0.000115108220852399
7.728	4.09237918084637e-05
7.73	6.79664113854494e-05
7.732	-0.000114637121350366
7.734	-0.000193294967762393
7.736	0.000139728165336119
7.738	-4.38240033549479e-05
7.74	0.000135281885876689
7.742	8.52342997469115e-06
7.744	-9.92548711115649e-05
7.746	0.000113332945526664
7.748	-5.69976297145293e-05
7.75	0.000177434011045863
7.752	0.00015965730332048
7.754	-7.65624810295862e-05
7.756	4.72387727479221e-05
7.758	-5.30585364232391e-05
7.76	8.92281689522545e-05
7.762	0.00017799696441113
7.764	-0.000116956404085695
7.766	-1.24142265895767e-05
7.768	-0.000222489804728995
7.77	-0.000205810617563423
7.772	0.000205865076277721
7.774	-4.59361446484903e-05
7.776	2.58519348082671e-05
7.778	-0.000197956112611578
7.78	-0.000253087184617156
7.782	-7.48216258743564e-05
7.784	-3.52051065906001e-05
7.786	0.000145266839549218
7.788	-6.65556339769964e-05
7.79	-0.000188321141061194
7.792	-0.000161497565480711
7.794	-0.000193115042942295
7.796	-3.90926320259212e-05
7.798	0.000106270440630653
7.8	-0.000153360674413944
7.802	-2.34596297724265e-05
7.804	-0.000240437264802384
7.806	-9.77976929226444e-05
7.808	5.93300484208231e-05
7.81	-8.78560536768103e-05
7.812	0.000221513884796742
7.814	-0.000102786919115151
7.816	-0.000511659049278455
7.818	-0.000466479802048428
7.82	-0.000564966384514173
7.822	-0.000237505128117855
7.824	-0.000201235355259078
7.826	-0.000160614732817945
7.828	8.80796989877286e-05
7.83	-0.000128185655645076
7.832	0.000157971828405521
7.834	-3.32953120125594e-05
7.836	-0.000168498090449432
7.838	-6.92287017562603e-05
7.84	-0.000148523399453922
7.842	-1.97120869332752e-05
7.844	0.00013461421048312
7.846	-3.92632969705262e-05
7.848	-6.9839198663572e-05
7.85	-0.000158587848600539
7.852	-6.93048288077238e-05
7.854	0.000147807026935955
7.856	-9.40882452120382e-05
7.858	0.000243661005919361
7.86	3.52744711373583e-05
7.862	-0.000114688113894724
7.864	8.11836055450738e-05
7.866	7.64704627136181e-05
7.868	0.000314196776282434
7.87	0.000122173050888948
7.872	-6.75734807755384e-05
7.874	7.38713356416642e-06
7.876	9.11427117609745e-05
7.878	0.000211772399051689
7.88	4.86988335052811e-05
7.882	-6.63465087154077e-05
7.884	-4.50270192992003e-05
7.886	-0.000131252532490055
7.888	-1.56146470209328e-05
7.89	0.000142951877989068
7.892	-0.000182439926865261
7.894	-8.00374382090697e-05
7.896	-0.000251348363115697
7.898	-0.000199099815995512
7.9	3.06173260248766e-05
7.902	-0.000209552760307987
7.904	-6.29182356676973e-05
7.906	-0.000276008394913338
7.908	-0.000168363373573347
7.91	-5.9315917859447e-05
7.912	-9.01276290719125e-05
7.914	0.000120257665870264
7.916	-3.28312210809922e-05
7.918	-0.00024352825721263
7.92	-0.000134453573453431
7.922	-8.9728541075087e-05
7.924	4.88544019213243e-05
7.926	2.50750429369956e-05
7.928	-0.000118917813284144
7.93	-2.55400128121552e-05
7.932	-0.000242506972665384
7.934	-0.000151130725899031
7.936	0.000114044397668696
7.938	-0.000145546094910708
7.94	-5.50237865393874e-05
7.942	-0.000207211961402458
7.944	-4.42720163301697e-05
7.946	4.73123270650801e-06
7.948	-8.6243331548858e-05
7.95	0.000111533118548953
7.952	-9.13466485232527e-05
7.954	9.05750841013288e-05
7.956	1.78300071643717e-05
7.958	-0.000473263708548297
7.96	-0.000441164929464682
7.962	-0.000497744867967453
7.964	-0.000536736822189282
7.966	-3.84262366208084e-05
7.968	-6.11495450425626e-05
7.97	3.61114680377259e-05
7.972	9.29432492451339e-05
7.974	-8.99207157566839e-05
7.976	-6.89351538699585e-05
7.978	-0.000171873624810067
7.98	-1.59572183614054e-06
7.982	6.3116561573359e-05
7.984	-1.31011289760654e-05
7.986	-1.65991748951665e-05
7.988	-8.67307189334778e-05
7.99	-0.000142025767581254
7.992	9.0767208414303e-05
7.994	-5.44912187297162e-05
7.996	0.000114156008021494
7.998	-9.08474175270813e-05
8	-0.000132638857018272
8.002	-3.03163947136106e-06
8.004	-3.08178194971845e-05
8.006	0.000184587537066584
8.008	0.000155527827173391
8.01	-0.000149371966223688
8.012	2.20358987225415e-05
8.014	-0.000195212785927955
8.016	8.22883211907006e-05
8.018	0.000164172575996069
8.02	-6.2881797973509e-05
8.022	4.39808924457113e-05
8.024	-0.000169888013693209
8.026	-0.000230831078401345
8.028	0.000127288461933829
8.03	-0.000124782444568576
8.032	8.46538721666399e-05
8.034	-0.000124194178230997
8.036	-0.00016631192056013
8.038	8.64713735270246e-05
8.04	-0.000107421426589676
8.042	5.94215464823978e-05
8.044	2.53026813785234e-06
8.046	-0.000222803643485659
8.048	-2.1513938704875e-05
8.05	-0.000175285625036157
8.052	0.000141494978567902
8.054	0.00011590281234832
8.056	-0.000194986888506542
8.058	-4.57224757346617e-05
8.06	-0.000205440240583413
8.062	-6.43578318039966e-05
8.064	0.000146334504534554
8.066	-0.000203057468319272
8.068	6.51516353489191e-05
8.07	-0.000254468473071169
8.072	-0.000184212418123021
8.074	3.36369826651187e-06
8.076	5.22539120767293e-05
8.078	0.00034663341498909
8.08	6.17065866341314e-05
8.082	-0.000368496740512173
8.084	-0.000347425635904117
8.086	-0.000527184769024791
8.088	-0.000244265085924487
8.09	-0.000138969905297819
8.092	-0.000174305341208021
8.094	-6.54395244784821e-05
8.096	-0.000136288958828061
8.098	6.29529969188e-06
8.1	0.000149973338423528
8.102	-0.000119926051750225
8.104	-4.13092422594751e-07
8.106	-0.000187248411474073
8.108	-0.000121486669829224
8.11	0.00013764831610699
8.112	4.86594167379864e-05
8.114	3.10753599945615e-05
8.116	-0.000203211971006315
8.118	-0.000208049500384152
8.12	8.00381437233953e-05
8.122	-4.88558398054726e-05
8.124	0.000200601416206027
8.126	2.33862358190204e-05
8.128	-0.00014386852677739
8.13	9.42925034744185e-05
8.132	-1.86811118694366e-05
8.134	0.000137569517270725
8.136	0.000111934727805989
8.138	-9.32064404439501e-08
8.14	4.32961796655185e-05
8.142	2.03282804936118e-05
8.144	0.000154158414433079
8.146	0.000303788704623382
8.148	5.40013908738414e-05
8.15	6.98468811517672e-05
8.152	-0.00015294086019955
8.154	-9.80845184027783e-05
8.156	8.77448987016589e-05
8.158	6.02995181949286e-06
8.16	0.000102868035535948
8.162	-0.000143050150182667
8.164	-0.000240257167765163
8.166	2.11431123951014e-05
8.168	-0.000240629369403347
8.17	6.44019382434036e-05
8.172	-8.19780221339269e-06
8.174	-0.000117752878289185
8.176	-0.000136829178732658
8.178	-0.000261156159351539
8.18	1.69778968070028e-05
8.182	0.000123526668680967
8.184	-0.000160053088578504
8.186	-8.20059610774006e-05
8.188	-0.000253813683140014
8.19	-4.73643626719296e-05
8.192	0.000271319585066618
8.194	2.60881004533085e-05
8.196	0.000292198446428167
8.198	-3.05289321905726e-05
8.2	-0.000515339010603063
8.202	-0.000418616535674222
8.204	-0.000494066441401748
8.206	-0.000169081925212714
8.208	-0.000118181373424414
8.21	-0.000196884423254963
8.212	-6.02204032288975e-05
8.214	-5.24443301638711e-05
8.216	8.05294694813385e-05
8.218	-1.75480545454129e-06
8.22	-0.000210280905507816
8.222	-0.00015293914023668
8.224	-6.23901563126327e-05
8.226	6.4712902859071e-05
8.228	0.000112364570841767
8.23	-9.18644883992849e-05
8.232	-3.99985995682107e-06
8.234	-0.000273488758453832
8.236	-2.79044785410015e-05
8.238	0.000209635816511589
8.24	-1.45856669782486e-05
8.242	0.0001008395440722
8.244	-0.000100610601259851
8.246	-0.000128937416241917
8.248	0.000189721390058037
8.25	9.25764616869354e-05
8.252	0.000274236318435126
8.254	0.000127656468914423
8.256	-0.00010267062980609
8.258	0.00010449363516692
8.26	-4.5509585575984e-05
8.262	0.000209481320519695
8.264	0.000133691928696187
8.266	-0.000118121218563073
8.268	-8.26643508034249e-05
8.27	-0.000195481649792099
8.272	-5.99506304499097e-05
8.274	8.821232597297e-05
8.276	-5.19901269870655e-05
8.278	-7.89937891986863e-06
8.28	-0.000208806569632234
8.282	-0.000163284601481284
8.284	4.47780427632661e-05
8.286	-0.000156456368825813
8.288	-2.72166927255908e-05
8.29	-0.000114651912160932
8.292	-0.000300702323547065
8.294	-0.000103353256199994
8.296	-0.000138059720333397
8.298	0.000150205511154766
8.3	-1.73205126685951e-05
8.302	-0.000286011466258348
8.304	-1.87185212731455e-05
8.306	-0.00019671708908097
8.308	9.63188446723078e-05
8.31	0.00015989782885042
8.312	-0.000171551063253781
8.314	-1.98541728873904e-05
8.316	-0.000281026306911011
8.318	-3.14101352495664e-05
8.32	2.85124253269168e-05
8.322	-5.31867668102818e-05
8.324	6.24059934775451e-05
8.326	-0.00024050307713532
8.328	-0.000202111011455871
8.33	3.24918911863864e-06
8.332	-6.89607340828274e-05
8.334	0.000124150640705737
8.336	-3.31374627382068e-05
8.338	-0.000184743700932635
8.34	3.12987555541694e-05
8.342	-0.000170693799030622
8.344	1.13170969064956e-05
8.346	-2.3066870561288e-05
8.348	-0.000160581746804876
8.35	-8.20201829979318e-05
8.352	5.30054188748867e-05
8.354	0.000276548713103167
8.356	-3.14081583984067e-05
8.358	-0.000570144556317178
8.36	-0.000488449595567506
8.362	-0.000615479047654665
8.364	-0.000259990782475237
8.366	7.59076969415025e-05
8.368	-0.000116021652341283
8.37	4.89719986360231e-05
8.372	-4.8042390752017e-05
8.374	-0.00010873221221447
8.376	-6.76557084055138e-05
8.378	-6.24142031866345e-05
8.38	0.000219028746141275
8.382	-0.000105203567155161
8.384	-0.000178643151777135
8.386	-2.20552066640373e-05
8.388	-0.000143785971151413
8.39	0.00014198706509162
8.392	9.34058801219448e-05
8.394	-0.000208478794477061
8.396	-5.63217757917696e-05
8.398	-0.000205953700917662
8.4	6.38500452458024e-05
8.402	0.000253449719061088
8.404	6.80556166823073e-05
8.406	0.000101572138315309
8.408	-0.00014890675783352
8.41	0.000107788698771403
8.412	0.00033035050202314
8.414	0.000130083820550715
8.416	0.000280460352425398
8.418	7.58447401194274e-05
8.42	-2.18901449729986e-05
8.422	0.000102262369735593
8.424	2.56093567085333e-05
8.426	0.000235742541993915
8.428	-3.5639603027559e-05
8.43	-0.000255141747844053
8.432	-0.000161985790147368
8.434	-0.000184496687761739
8.436	9.35716826221573e-05
8.438	9.37506311226559e-05
8.44	-0.00026501699411751
8.442	-0.000127490612164254
8.444	-0.000304643491747993
8.446	-0.000179208454331891
8.448	0.000126613509215306
8.45	-0.000199480296199331
8.452	7.88791794655102e-08
8.454	-0.000126663674307954
8.456	-0.000272588934810562
8.458	5.83730867301391e-05
8.46	-9.20944239970086e-05
8.462	0.000119820777260365
8.464	-0.000147162404769719
8.466	-0.000217993902881403
8.468	3.51288981875355e-05
8.47	-2.52589523406343e-05
8.472	4.69810270616446e-05
8.474	-2.36288568383708e-05
8.476	-0.000249808616013821
8.478	-9.80335359249111e-05
8.48	-0.000214535262689095
8.482	-7.6227968098837e-05
8.484	-4.09426437816827e-06
8.486	-0.000263685383812727
8.488	-1.41658267328348e-05
8.49	-0.000147888153943108
8.492	-0.000229789893701848
8.494	6.15157217821043e-05
8.496	-6.09421225984004e-05
8.498	-0.000103927951943624
8.5	-0.00018191629107106
8.502	-0.000281479468947269
8.504	2.39327067106113e-05
8.506	-0.000106090053933133
8.508	-5.34576943897952e-06
8.51	-8.15519037782616e-05
8.512	-0.00021243695958843
8.514	-4.58244387733576e-05
8.516	-0.000175419686544497
8.518	0.000167608496410107
8.52	0.000388768122175076
8.522	5.51923443633307e-05
8.524	-0.00034759716416294
8.526	-0.000682969470477898
8.528	-0.000604916997754912
8.53	-0.000299374088825437
8.532	-0.000281909716905052
8.534	9.51044889824312e-05
8.536	-0.00015932264173984
8.538	-0.000186297792155193
8.54	0.000101950881459539
8.542	-7.52274604876695e-05
8.544	0.000102701470595032
8.546	-0.000105282055435762
8.548	-0.000327184872773184
8.55	-1.42895889049864e-05
8.552	-0.000140251795808953
8.554	0.00014166647773592
8.556	3.10015040060934e-05
8.558	-0.000203930996016736
8.56	-6.06695751473969e-05
8.562	-7.02414347589092e-05
8.564	0.000116010621505754
8.566	0.000241221274129644
8.568	-7.05487377574101e-05
8.57	1.28522614544377e-05
8.572	-0.000123431677901064
8.574	9.08042329215159e-05
8.576	0.000255854728043353
8.578	0.00010350059980553
8.58	0.000157889973901271
8.582	-0.000118756932766484
8.584	5.69070778124409e-05
8.586	0.000176417720110287
8.588	8.29115151740472e-05
8.59	0.000266021521897253
8.592	-5.60032617157599e-06
8.594	-0.000157788844876177
8.596	1.4806813195043e-05
8.598	-0.000154378329474633
8.6	-2.84719353232804e-06
8.602	-6.66510391341933e-05
8.604	-0.000210234437211452
8.606	-7.4116543736855e-05
8.608	-0.000206901636073217
8.61	-6.22421907929542e-05
8.612	1.92280054216309e-05
8.614	-0.000120179706465555
8.616	-4.15494715783483e-06
8.618	-0.000142133777650769
8.62	-4.57076315160739e-05
8.622	0.000134594067601401
8.624	-0.000107899123989531
8.626	-2.0292662047755e-05
8.628	-0.000148769569700311
8.63	-0.000211468897502565
8.632	2.75550585745176e-05
8.634	-4.24591931923134e-05
8.636	7.67024955647624e-05
8.638	-9.40434721391993e-06
8.64	-0.000247740598297951
8.642	-0.000141843969518674
8.644	-0.000216403867880455
8.646	-5.55991056487187e-05
8.648	3.39729646494999e-06
8.65	-0.000244799926998057
8.652	-0.000103654010067615
8.654	-0.000243493929384812
8.656	1.18827168726702e-05
8.658	0.00011745430477073
8.66	-0.000167290595348699
8.662	1.23233502703086e-05
8.664	-0.000260247528286222
8.666	-0.000138019780323959
8.668	7.50192825154627e-05
8.67	-0.000107514184972576
8.672	0.00010973433482316
8.674	-2.63907872316777e-05
8.676	-0.000162302900767028
8.678	-0.000102852892564278
8.68	2.47333684899335e-05
8.682	5.25965316524901e-05
8.684	-7.11824855617079e-05
8.686	-0.000349142522549266
8.688	-7.465022325539e-05
8.69	-0.000204464201052332
8.692	3.5961961260128e-05
8.694	8.79968498701458e-05
8.696	-0.000102097060889575
8.698	6.04332678943141e-05
8.7	-0.000168081689110632
8.702	-9.06109567719506e-05
8.704	0.000174345642799328
8.706	-0.000108663628764984
8.708	-2.74394210910212e-05
8.71	-0.000265805962685151
8.712	-0.000240056663718029
8.714	1.76715729094333e-05
8.716	-0.000169647837227028
8.718	0.000121942817473474
8.72	-7.74495157494181e-05
8.722	-0.000254314619165592
8.724	-9.19539149953799e-05
8.726	-0.000113198659107415
8.728	6.36844936054758e-05
8.73	0.000106767629181332
8.732	-5.07866133752305e-05
8.734	0.000176911686996949
8.736	-0.000162409210637281
8.738	-0.000230988140857084
8.74	-0.000427986441855363
8.742	-0.000775714608818165
8.744	-0.000248125600726375
8.746	-0.000335685140790544
8.748	-3.6727632853097e-05
8.75	0.00011846324878275
8.752	-7.98044620168354e-06
8.754	0.000105926752194457
8.756	-0.000182540828512486
8.758	-3.57917297618808e-05
8.76	1.33185007627241e-05
8.762	-2.41927853624194e-05
8.764	0.000186043059709762
8.766	4.10069929756555e-05
8.768	-0.000269929205737462
8.77	-5.99619547170252e-05
8.772	-5.52937940479022e-05
8.774	0.000215065864006161
8.776	4.23590021862227e-05
8.778	-0.000164481055150963
8.78	5.90917626538922e-05
8.782	-0.000127845264196441
8.784	8.96594948336428e-05
8.786	0.000253153219849721
8.788	0.000108025676853016
8.79	0.000135611375826538
8.792	-7.68090377625414e-05
8.794	3.26480889464919e-05
8.796	0.000183813312744748
8.798	6.77342031361646e-05
8.8	0.000279649947842988
8.802	-5.32994838299913e-05
8.804	-4.61072037504465e-05
8.806	0.000102314605577428
